L I	L III	L II(Calc.)
-0.0646973	-0.0256348	-0.090332
-0.0650024	-0.00488281	-0.0698853
-0.0634766	0.0100708	-0.0534058
-0.0604248	0.0186157	-0.0418091
-0.0558472	0.0216675	-0.0341797
-0.0500488	0.0210571	-0.0289917
-0.0442505	0.0180054	-0.0262451
-0.0387573	0.0143433	-0.0244141
-0.0338745	0.010376	-0.0234985
-0.0296021	0.00671387	-0.0228882
-0.0262451	0.00457764	-0.0216675
-0.0241089	0.00335693	-0.020752
-0.022583	0.00274658	-0.0198364
-0.0216675	0.00274658	-0.0189209
-0.0210571	0.00335693	-0.0177002
-0.0210571	0.00396729	-0.0170898
-0.0213623	0.00396729	-0.017395
-0.0231934	0.00488281	-0.0183105
-0.0256348	0.00640869	-0.0192261
-0.0280762	0.00793457	-0.0201416
-0.0292969	0.0088501	-0.0204468
-0.0296021	0.00854492	-0.0210571
-0.0289917	0.00793457	-0.0210571
-0.0274658	0.00701904	-0.0204468
-0.0250244	0.00579834	-0.0192261
-0.0222778	0.00488281	-0.017395
-0.0189209	0.00457764	-0.0143433
-0.015564	0.00427246	-0.0112915
-0.0125122	0.00366211	-0.0088501
-0.0100708	0.00335693	-0.00671387
-0.0088501	0.00366211	-0.00518799
-0.00823975	0.00396729	-0.00427246
-0.00823975	0.00427246	-0.00396729
-0.00946045	0.00427246	-0.00518799
-0.0115967	0.00457764	-0.00701904
-0.0128174	0.00427246	-0.00854492
-0.0128174	0.00366211	-0.00915527
-0.0125122	0.00274658	-0.00976563
-0.0115967	0.00183105	-0.00976563
-0.010376	0.000915527	-0.00946045
-0.0088501	0.000305176	-0.00854492
-0.00732422	0.000305176	-0.00701904
-0.00518799	0.0012207	-0.00396729
-0.00274658	0.00213623	-0.000610352
0	0.00305176	0.00305176
0.00183105	0.00396729	0.00579834
0.00213623	0.00488281	0.00701904
0.00183105	0.00579834	0.00762939
0.000915527	0.00640869	0.00732422
0.000610352	0.00640869	0.00701904
0.000305176	0.00518799	0.00549316
0	0.00335693	0.00335693
0	0.000915527	0.000915527
0.000305176	-0.000915527	-0.000610352
0.000915527	-0.0012207	-0.000305176
0.0012207	-0.000305176	0.000915527
0.00152588	0.000305176	0.00183105
0.00183105	0.000305176	0.00213623
0.00305176	0.000610352	0.00366211
0.00518799	0.00244141	0.00762939
0.00732422	0.00549316	0.0128174
0.00915527	0.00946045	0.0186157
0.0106812	0.0115967	0.0222778
0.0125122	0.0115967	0.0241089
0.0146484	0.0109863	0.0256348
0.0167847	0.00946045	0.0262451
0.0192261	0.00640869	0.0256348
0.0204468	0.00335693	0.0238037
0.0210571	0	0.0210571
0.0216675	-0.00427246	0.017395
0.0219727	-0.00823975	0.0137329
0.0219727	-0.0112915	0.0106812
0.0213623	-0.012207	0.00915527
0.0201416	-0.012207	0.00793457
0.0192261	-0.012207	0.00701904
0.0192261	-0.0131226	0.00610352
0.0204468	-0.0143433	0.00610352
0.022583	-0.0152588	0.00732422
0.0247192	-0.015564	0.00915527
0.0271606	-0.0164795	0.0106812
0.0302124	-0.0180054	0.012207
0.0338745	-0.0204468	0.0134277
0.0384521	-0.022583	0.0158691
0.0427246	-0.0247192	0.0180054
0.0460815	-0.0262451	0.0198364
0.0488281	-0.0274658	0.0213623
0.0509644	-0.0286865	0.0222778
0.0527954	-0.0308228	0.0219727
0.0543213	-0.0326538	0.0216675
0.0552368	-0.0332642	0.0219727
0.055542	-0.0335693	0.0219727
0.055542	-0.0341797	0.0213623
0.055542	-0.0354004	0.0201416
0.055542	-0.0360107	0.0195313
0.055542	-0.0360107	0.0195313
0.0558472	-0.0357056	0.0201416
0.0564575	-0.0354004	0.0210571
0.0570679	-0.0354004	0.0216675
0.0582886	-0.0357056	0.022583
0.0598145	-0.0363159	0.0234985
0.0613403	-0.0375366	0.0238037
0.0622559	-0.0390625	0.0231934
0.0628662	-0.0408936	0.0219727
0.0631714	-0.0427246	0.0204468
0.0634766	-0.0442505	0.0192261
0.062561	-0.0442505	0.0183105
0.0616455	-0.0427246	0.0189209
0.0598145	-0.0402832	0.0195313
0.0570679	-0.0372314	0.0198364
0.0534058	-0.0332642	0.0201416
0.0491333	-0.0286865	0.0204468
0.0445557	-0.0241089	0.0204468
0.0396729	-0.0192261	0.0204468
0.03479	-0.0143433	0.0204468
0.0299072	-0.0109863	0.0189209
0.0250244	-0.0088501	0.0161743
0.0198364	-0.00823975	0.0115967
0.0149536	-0.00701904	0.00793457
0.010376	-0.00518799	0.00518799
0.00549316	-0.00305176	0.00244141
0.0012207	-0.00152588	-0.000305176
-0.00274658	0	-0.00274658
-0.00671387	0.00244141	-0.00427246
-0.0109863	0.00488281	-0.00610352
-0.015564	0.00762939	-0.00793457
-0.0189209	0.0109863	-0.00793457
-0.0219727	0.0137329	-0.00823975
-0.0253296	0.0158691	-0.00946045
-0.0283813	0.0167847	-0.0115967
-0.0302124	0.0167847	-0.0134277
-0.0311279	0.0158691	-0.0152588
-0.0317383	0.015564	-0.0161743
-0.0323486	0.015564	-0.0167847
-0.0323486	0.0146484	-0.0177002
-0.0314331	0.0131226	-0.0183105
-0.0299072	0.0119019	-0.0180054
-0.0286865	0.0115967	-0.0170898
-0.027771	0.0109863	-0.0167847
-0.0271606	0.010376	-0.0167847
-0.0265503	0.010376	-0.0161743
-0.0262451	0.0106812	-0.015564
-0.0265503	0.0106812	-0.0158691
-0.0274658	0.0106812	-0.0167847
-0.0283813	0.0106812	-0.0177002
-0.0286865	0.0109863	-0.0177002
-0.0292969	0.0115967	-0.0177002
-0.0292969	0.0125122	-0.0167847
-0.0292969	0.0128174	-0.0164795
-0.0286865	0.012207	-0.0164795
-0.0283813	0.0112915	-0.0170898
-0.0280762	0.0106812	-0.017395
-0.0274658	0.0100708	-0.017395
-0.0259399	0.00915527	-0.0167847
-0.0244141	0.00793457	-0.0164795
-0.0231934	0.00671387	-0.0164795
-0.0222778	0.00579834	-0.0164795
-0.0213623	0.00488281	-0.0164795
-0.0198364	0.00366211	-0.0161743
-0.0183105	0.00244141	-0.0158691
-0.0164795	0.00152588	-0.0149536
-0.0149536	0.0012207	-0.0137329
-0.0131226	0.000915527	-0.012207
-0.0119019	0.000305176	-0.0115967
-0.0106812	-0.000305176	-0.0109863
-0.010376	-0.000610352	-0.0109863
-0.0109863	-0.0012207	-0.012207
-0.0115967	-0.00213623	-0.0137329
-0.012207	-0.00213623	-0.0143433
-0.0131226	-0.000915527	-0.0140381
-0.0140381	0.000305176	-0.0137329
-0.0152588	0.0012207	-0.0140381
-0.0167847	0.00213623	-0.0146484
-0.0183105	0.00244141	-0.0158691
-0.0192261	0.00183105	-0.017395
-0.0195313	0.000915527	-0.0186157
-0.0189209	-0.000305176	-0.0192261
-0.0180054	-0.0012207	-0.0192261
-0.0170898	-0.00213623	-0.0192261
-0.0167847	-0.00244141	-0.0192261
-0.0164795	-0.00183105	-0.0183105
-0.0149536	-0.0012207	-0.0161743
-0.0125122	-0.000610352	-0.0131226
-0.00976563	-0.000610352	-0.010376
-0.00762939	-0.000305176	-0.00793457
-0.00671387	0.000915527	-0.00579834
-0.00640869	0.00213623	-0.00427246
-0.00640869	0.00305176	-0.00335693
-0.00671387	0.00305176	-0.00366211
-0.00701904	0.00244141	-0.00457764
-0.00732422	0.0012207	-0.00610352
-0.00793457	0.000610352	-0.00732422
-0.00946045	0.000305176	-0.00915527
-0.0112915	0.0012207	-0.0100708
-0.012207	0.00244141	-0.00976563
-0.0115967	0.00427246	-0.00732422
-0.0106812	0.00488281	-0.00579834
-0.00976563	0.00549316	-0.00427246
-0.00915527	0.00610352	-0.00305176
-0.00915527	0.00671387	-0.00244141
-0.00915527	0.00701904	-0.00213623
-0.0088501	0.00640869	-0.00244141
-0.0088501	0.00518799	-0.00366211
-0.0088501	0.00305176	-0.00579834
-0.00946045	0.0012207	-0.00823975
-0.010376	0.000610352	-0.00976563
-0.0112915	0.000915527	-0.010376
-0.0119019	0.00152588	-0.010376
-0.012207	0.00244141	-0.00976563
-0.0119019	0.00396729	-0.00793457
-0.0112915	0.00488281	-0.00640869
-0.0100708	0.00518799	-0.00488281
-0.00854492	0.00549316	-0.00305176
-0.00762939	0.00640869	-0.0012207
-0.00701904	0.00671387	-0.000305176
-0.00640869	0.00549316	-0.000915527
-0.00610352	0.00335693	-0.00274658
-0.00549316	0.00152588	-0.00396729
-0.00488281	0.000305176	-0.00457764
-0.00427246	-0.000915527	-0.00518799
-0.00457764	-0.00244141	-0.00701904
-0.00457764	-0.00488281	-0.00946045
-0.00457764	-0.00671387	-0.0112915
-0.00457764	-0.00732422	-0.0119019
-0.00457764	-0.00762939	-0.012207
-0.00457764	-0.00823975	-0.0128174
-0.00457764	-0.00823975	-0.0128174
-0.00518799	-0.00823975	-0.0134277
-0.00549316	-0.00762939	-0.0131226
-0.00701904	-0.00640869	-0.0134277
-0.00854492	-0.00457764	-0.0131226
-0.010376	-0.00274658	-0.0131226
-0.0119019	-0.00152588	-0.0134277
-0.0134277	-0.000915527	-0.0143433
-0.0149536	-0.000915527	-0.0158691
-0.0158691	-0.00213623	-0.0180054
-0.0158691	-0.00366211	-0.0195313
-0.0152588	-0.00457764	-0.0198364
-0.0140381	-0.00610352	-0.0201416
-0.0125122	-0.00732422	-0.0198364
-0.0100708	-0.00854492	-0.0186157
-0.00671387	-0.00915527	-0.0158691
-0.00396729	-0.00854492	-0.0125122
-0.00183105	-0.00762939	-0.00946045
-0.000305176	-0.00671387	-0.00701904
0.000915527	-0.00579834	-0.00488281
0.000915527	-0.00396729	-0.00305176
0	-0.00244141	-0.00244141
-0.000915527	-0.0012207	-0.00213623
-0.00244141	-0.000915527	-0.00335693
-0.00457764	-0.000915527	-0.00549316
-0.00762939	-0.000305176	-0.00793457
-0.0106812	-0.000305176	-0.0109863
-0.0131226	-0.000610352	-0.0137329
-0.0149536	-0.000915527	-0.0158691
-0.0161743	-0.000610352	-0.0167847
-0.0167847	-0.000305176	-0.0170898
-0.0164795	-0.000305176	-0.0167847
-0.0158691	0	-0.0158691
-0.0152588	-0.000610352	-0.0158691
-0.0143433	-0.000610352	-0.0149536
-0.0134277	0	-0.0134277
-0.0115967	0.000610352	-0.0109863
-0.00976563	0.000610352	-0.00915527
-0.00793457	0.000915527	-0.00701904
-0.00732422	0.0012207	-0.00610352
-0.00671387	0.00152588	-0.00518799
-0.00640869	0.0012207	-0.00518799
-0.00671387	0.000915527	-0.00579834
-0.00701904	0.000305176	-0.00671387
-0.00701904	-0.000305176	-0.00732422
-0.00640869	-0.000610352	-0.00701904
-0.00610352	-0.000915527	-0.00701904
-0.00579834	-0.00152588	-0.00732422
-0.00610352	-0.00213623	-0.00823975
-0.00640869	-0.00244141	-0.0088501
-0.00640869	-0.00244141	-0.0088501
-0.00671387	-0.00244141	-0.00915527
-0.00701904	-0.00183105	-0.0088501
-0.00762939	-0.000610352	-0.00823975
-0.0088501	0.000610352	-0.00823975
-0.00976563	0.00152588	-0.00823975
-0.0109863	0.00213623	-0.0088501
-0.012207	0.00213623	-0.0100708
-0.0134277	0.00152588	-0.0119019
-0.0137329	0.000915527	-0.0128174
-0.0137329	0.000610352	-0.0131226
-0.0131226	0.000915527	-0.012207
-0.0119019	0.000915527	-0.0109863
-0.010376	0	-0.010376
-0.00946045	-0.0012207	-0.0106812
-0.00823975	-0.00244141	-0.0106812
-0.00732422	-0.00335693	-0.0106812
-0.00671387	-0.00335693	-0.0100708
-0.00640869	-0.00213623	-0.00854492
-0.00701904	-0.0012207	-0.00823975
-0.00762939	-0.000610352	-0.00823975
-0.00793457	0.000305176	-0.00762939
-0.00854492	0.000915527	-0.00762939
-0.00915527	0.00152588	-0.00762939
-0.00976563	0.00213623	-0.00762939
-0.010376	0.00274658	-0.00762939
-0.0106812	0.00244141	-0.00823975
-0.010376	0.00152588	-0.0088501
-0.00915527	0.000915527	-0.00823975
-0.00793457	0.000305176	-0.00762939
-0.00762939	0.000610352	-0.00701904
-0.00762939	0.00183105	-0.00579834
-0.00762939	0.00396729	-0.00366211
-0.00701904	0.00579834	-0.0012207
-0.00671387	0.00671387	0
-0.00640869	0.00701904	0.000610352
-0.00610352	0.00793457	0.00183105
-0.00579834	0.00915527	0.00335693
-0.00549316	0.0100708	0.00457764
-0.00579834	0.00915527	0.00335693
-0.00671387	0.00701904	0.000305176
-0.00762939	0.00427246	-0.00335693
-0.00854492	0.00213623	-0.00640869
-0.00946045	0.000915527	-0.00854492
-0.010376	0.000915527	-0.00946045
-0.0106812	0.00183105	-0.0088501
-0.0100708	0.00213623	-0.00793457
-0.00915527	0.00183105	-0.00732422
-0.00762939	0.00152588	-0.00610352
-0.00579834	0.00152588	-0.00427246
-0.00305176	0.00183105	-0.0012207
-0.000305176	0.00213623	0.00183105
0.00213623	0.00244141	0.00457764
0.00396729	0.00305176	0.00701904
0.00488281	0.00427246	0.00915527
0.00579834	0.00457764	0.010376
0.00549316	0.00518799	0.0106812
0.00518799	0.00671387	0.0119019
0.00549316	0.00854492	0.0140381
0.00610352	0.010376	0.0164795
0.00701904	0.012207	0.0192261
0.00823975	0.0137329	0.0219727
0.00976563	0.0140381	0.0238037
0.0119019	0.0137329	0.0256348
0.0152588	0.0125122	0.027771
0.0195313	0.0109863	0.0305176
0.0241089	0.0106812	0.03479
0.0292969	0.0109863	0.0402832
0.0341797	0.0100708	0.0442505
0.0387573	0.00915527	0.0479126
0.0427246	0.00915527	0.0518799
0.0463867	0.0100708	0.0564575
0.0491333	0.010376	0.0595093
0.0515747	0.00915527	0.06073
0.0524902	0.00762939	0.0601196
0.0518799	0.00579834	0.0576782
0.050354	0.00366211	0.0540161
0.0485229	0.000610352	0.0491333
0.0463867	-0.00366211	0.0427246
0.0439453	-0.00823975	0.0357056
0.0408936	-0.0134277	0.0274658
0.0378418	-0.0195313	0.0183105
0.0354004	-0.0262451	0.00915527
0.0332642	-0.032959	0.000305176
0.0311279	-0.0390625	-0.00793457
0.0286865	-0.0436401	-0.0149536
0.0256348	-0.045166	-0.0195313
0.0222778	-0.0445557	-0.0222778
0.0180054	-0.0427246	-0.0247192
0.0131226	-0.0396729	-0.0265503
0.00762939	-0.0344849	-0.0268555
0.00213623	-0.027771	-0.0256348
-0.00335693	-0.0204468	-0.0238037
-0.00854492	-0.0131226	-0.0216675
-0.0140381	-0.00640869	-0.0204468
-0.0195313	-0.000915527	-0.0204468
-0.0247192	0.00244141	-0.0222778
-0.0299072	0.00488281	-0.0250244
-0.0341797	0.00671387	-0.0274658
-0.0372314	0.00762939	-0.0296021
-0.0393677	0.00823975	-0.0311279
-0.0405884	0.00823975	-0.0323486
-0.0408936	0.00732422	-0.0335693
-0.0396729	0.00610352	-0.0335693
-0.0378418	0.00549316	-0.0323486
-0.0354004	0.00549316	-0.0299072
-0.032959	0.00579834	-0.0271606
-0.0305176	0.00579834	-0.0247192
-0.027771	0.00549316	-0.0222778
-0.0253296	0.00518799	-0.0201416
-0.0231934	0.00518799	-0.0180054
-0.0216675	0.00518799	-0.0164795
-0.020752	0.00579834	-0.0149536
-0.0210571	0.00701904	-0.0140381
-0.022583	0.00854492	-0.0140381
-0.0247192	0.010376	-0.0143433
-0.0271606	0.0140381	-0.0131226
-0.0296021	0.0195313	-0.0100708
-0.0323486	0.027771	-0.00457764
-0.0344849	0.0366211	0.00213623
-0.0335693	0.043335	0.00976563
-0.0283813	0.0469971	0.0186157
-0.0186157	0.0476074	0.0289917
-0.00427246	0.0460815	0.0418091
0.0152588	0.0415039	0.0567627
0.0405884	0.0317383	0.0723267
0.0714111	0.0161743	0.0875854
0.105591	-0.00335693	0.102234
0.140381	-0.0234985	0.116882
0.17334	-0.0415039	0.131836
0.201416	-0.0546265	0.14679
0.221863	-0.0604248	0.161438
0.231323	-0.0561523	0.175171
0.228271	-0.0418091	0.186462
0.212708	-0.0204468	0.192261
0.185852	0.00427246	0.190125
0.150452	0.0292969	0.179749
0.110474	0.0494385	0.159912
0.0698853	0.0601196	0.130005
0.0326538	0.0585938	0.0912476
0.000610352	0.0445557	0.045166
-0.0253296	0.0216675	-0.00366211
-0.0448608	-0.00701904	-0.0518799
-0.0564575	-0.0378418	-0.0942993
-0.0619507	-0.0671387	-0.129089
-0.062561	-0.0909424	-0.153503
-0.06073	-0.106201	-0.166931
-0.0579834	-0.111084	-0.169067
-0.0561523	-0.105286	-0.161438
-0.0564575	-0.0897217	-0.146179
-0.0582886	-0.0683594	-0.126648
-0.0610352	-0.0457764	-0.106812
-0.0637817	-0.0234985	-0.0872803
-0.0653076	-0.00488281	-0.0701904
-0.0646973	0.00732422	-0.057373
-0.0613403	0.0134277	-0.0479126
-0.0561523	0.0146484	-0.0415039
-0.0497437	0.0128174	-0.0369263
-0.0439453	0.00976563	-0.0341797
-0.0390625	0.00610352	-0.032959
-0.0350952	0.00335693	-0.0317383
-0.0317383	0.00244141	-0.0292969
-0.0289917	0.00305176	-0.0259399
-0.0274658	0.00457764	-0.0228882
-0.0268555	0.00610352	-0.020752
-0.0265503	0.00671387	-0.0198364
-0.0262451	0.00610352	-0.0201416
-0.0262451	0.00579834	-0.0204468
-0.0256348	0.00640869	-0.0192261
-0.0244141	0.00793457	-0.0164795
-0.0234985	0.00946045	-0.0140381
-0.0231934	0.0106812	-0.0125122
-0.0228882	0.0112915	-0.0115967
-0.0222778	0.0109863	-0.0112915
-0.0216675	0.0106812	-0.0109863
-0.0213623	0.010376	-0.0109863
-0.0222778	0.00976563	-0.0125122
-0.0231934	0.0088501	-0.0143433
-0.0234985	0.00732422	-0.0161743
-0.0238037	0.00518799	-0.0186157
-0.0238037	0.00335693	-0.0204468
-0.0241089	0.00183105	-0.0222778
-0.0231934	0.0012207	-0.0219727
-0.0216675	0.0012207	-0.0204468
-0.0192261	0.0012207	-0.0180054
-0.0158691	0.00152588	-0.0143433
-0.0125122	0.00244141	-0.0100708
-0.00915527	0.00366211	-0.00549316
-0.00579834	0.00366211	-0.00213623
-0.00305176	0.00396729	0.000915527
-0.000915527	0.00366211	0.00274658
0.000610352	0.00244141	0.00305176
0.00152588	0.000915527	0.00244141
0.0012207	0	0.0012207
0	0	0
-0.00183105	-0.000305176	-0.00213623
-0.00305176	-0.000610352	-0.00366211
-0.00335693	-0.0012207	-0.00457764
-0.00274658	-0.0012207	-0.00396729
-0.00244141	-0.000610352	-0.00305176
-0.00183105	0.000610352	-0.0012207
-0.0012207	0.00152588	0.000305176
0	0.000915527	0.000915527
0.00183105	-0.000915527	0.000915527
0.00366211	-0.00183105	0.00183105
0.00518799	-0.000915527	0.00427246
0.00610352	-0.000915527	0.00518799
0.00640869	-0.00183105	0.00457764
0.00579834	-0.00305176	0.00274658
0.00518799	-0.00335693	0.00183105
0.00457764	-0.00305176	0.00152588
0.00457764	-0.00274658	0.00183105
0.00488281	-0.00244141	0.00244141
0.00518799	-0.00244141	0.00274658
0.00488281	-0.00274658	0.00213623
0.00457764	-0.00366211	0.000915527
0.00488281	-0.00488281	0
0.00579834	-0.00610352	-0.000305176
0.00732422	-0.00701904	0.000305176
0.00946045	-0.00823975	0.0012207
0.0119019	-0.0100708	0.00183105
0.0149536	-0.012207	0.00274658
0.0180054	-0.0143433	0.00366211
0.0210571	-0.0164795	0.00457764
0.0247192	-0.0186157	0.00610352
0.0280762	-0.0210571	0.00701904
0.0311279	-0.0222778	0.0088501
0.0332642	-0.0234985	0.00976563
0.0344849	-0.0250244	0.00946045
0.0350952	-0.0265503	0.00854492
0.0354004	-0.0274658	0.00793457
0.0350952	-0.027771	0.00732422
0.0354004	-0.027771	0.00762939
0.0357056	-0.0271606	0.00854492
0.0363159	-0.0268555	0.00946045
0.0369263	-0.0271606	0.00976563
0.0384521	-0.027771	0.0106812
0.0405884	-0.0283813	0.012207
0.043335	-0.0299072	0.0134277
0.0460815	-0.0323486	0.0137329
0.0488281	-0.0354004	0.0134277
0.0512695	-0.038147	0.0131226
0.0534058	-0.039978	0.0134277
0.0549316	-0.0415039	0.0134277
0.0561523	-0.0430298	0.0131226
0.0570679	-0.0457764	0.0112915
0.0576782	-0.0488281	0.0088501
0.0579834	-0.0500488	0.00793457
0.0576782	-0.0500488	0.00762939
0.057373	-0.0494385	0.00793457
0.0570679	-0.0494385	0.00762939
0.0564575	-0.0497437	0.00671387
0.055542	-0.0497437	0.00579834
0.0543213	-0.0491333	0.00518799
0.0534058	-0.0482178	0.00518799
0.0534058	-0.0479126	0.00549316
0.0540161	-0.0473022	0.00671387
0.0549316	-0.0454712	0.00946045
0.0558472	-0.0439453	0.0119019
0.0564575	-0.043335	0.0131226
0.0567627	-0.0421143	0.0146484
0.0567627	-0.0402832	0.0164795
0.055542	-0.0387573	0.0167847
0.0543213	-0.0366211	0.0177002
0.0518799	-0.0344849	0.017395
0.0482178	-0.0320435	0.0161743
0.0436401	-0.0296021	0.0140381
0.0378418	-0.0271606	0.0106812
0.0314331	-0.0244141	0.00701904
0.0244141	-0.0216675	0.00274658
0.017395	-0.0195313	-0.00213623
0.010376	-0.0158691	-0.00549316
0.00366211	-0.0112915	-0.00762939
-0.00183105	-0.00762939	-0.00946045
-0.00671387	-0.00457764	-0.0112915
-0.0119019	-0.00152588	-0.0134277
-0.0161743	0.00183105	-0.0143433
-0.0195313	0.00488281	-0.0146484
-0.0219727	0.00701904	-0.0149536
-0.0238037	0.00793457	-0.0158691
-0.0253296	0.00823975	-0.0170898
-0.0262451	0.00854492	-0.0177002
-0.0271606	0.00823975	-0.0189209
-0.0280762	0.00793457	-0.0201416
-0.0289917	0.00762939	-0.0213623
-0.0296021	0.00701904	-0.022583
-0.0299072	0.00610352	-0.0238037
-0.0302124	0.00457764	-0.0256348
-0.0308228	0.00366211	-0.0271606
-0.0317383	0.00305176	-0.0286865
-0.0323486	0.00183105	-0.0305176
-0.0323486	0.00152588	-0.0308228
-0.0320435	0.0012207	-0.0308228
-0.0305176	0.00152588	-0.0289917
-0.0289917	0.00244141	-0.0265503
-0.027771	0.00305176	-0.0247192
-0.0265503	0.00396729	-0.022583
-0.0259399	0.00518799	-0.020752
-0.0256348	0.00701904	-0.0186157
-0.0253296	0.00854492	-0.0167847
-0.0250244	0.00915527	-0.0158691
-0.0250244	0.00823975	-0.0167847
-0.0253296	0.00610352	-0.0192261
-0.0259399	0.00427246	-0.0216675
-0.0262451	0.00305176	-0.0231934
-0.0268555	0.00244141	-0.0244141
-0.0268555	0.00152588	-0.0253296
-0.0265503	0.000305176	-0.0262451
-0.0253296	-0.0012207	-0.0265503
-0.0234985	-0.00244141	-0.0259399
-0.0213623	-0.00244141	-0.0238037
-0.0195313	-0.00152588	-0.0210571
-0.0180054	-0.000915527	-0.0189209
-0.017395	-0.0012207	-0.0186157
-0.0167847	-0.00244141	-0.0192261
-0.0158691	-0.00366211	-0.0195313
-0.015564	-0.00427246	-0.0198364
-0.0158691	-0.00427246	-0.0201416
-0.0161743	-0.00488281	-0.0210571
-0.0164795	-0.00610352	-0.022583
-0.0164795	-0.00701904	-0.0234985
-0.0158691	-0.00762939	-0.0234985
-0.0143433	-0.00854492	-0.0228882
-0.0134277	-0.0088501	-0.0222778
-0.0125122	-0.0088501	-0.0213623
-0.0112915	-0.00854492	-0.0198364
-0.00976563	-0.0088501	-0.0186157
-0.00854492	-0.00946045	-0.0180054
-0.00793457	-0.010376	-0.0183105
-0.00793457	-0.0112915	-0.0192261
-0.0088501	-0.0106812	-0.0195313
-0.0100708	-0.0088501	-0.0189209
-0.0119019	-0.00762939	-0.0195313
-0.0137329	-0.00701904	-0.020752
-0.0158691	-0.00732422	-0.0231934
-0.017395	-0.00823975	-0.0256348
-0.0183105	-0.00823975	-0.0265503
-0.0189209	-0.00793457	-0.0268555
-0.0186157	-0.00762939	-0.0262451
-0.0180054	-0.00793457	-0.0259399
-0.0164795	-0.00854492	-0.0250244
-0.0146484	-0.00915527	-0.0238037
-0.0125122	-0.0106812	-0.0231934
-0.0112915	-0.0119019	-0.0231934
-0.010376	-0.0115967	-0.0219727
-0.00946045	-0.0106812	-0.0201416
-0.00854492	-0.010376	-0.0189209
-0.00762939	-0.010376	-0.0180054
-0.00732422	-0.0100708	-0.017395
-0.00732422	-0.0088501	-0.0161743
-0.00732422	-0.00793457	-0.0152588
-0.00793457	-0.00640869	-0.0143433
-0.00915527	-0.00488281	-0.0140381
-0.0100708	-0.00457764	-0.0146484
-0.0109863	-0.00518799	-0.0161743
-0.0115967	-0.00518799	-0.0167847
-0.0128174	-0.00549316	-0.0183105
-0.0134277	-0.00549316	-0.0189209
-0.0131226	-0.00549316	-0.0186157
-0.0125122	-0.00610352	-0.0186157
-0.0115967	-0.00640869	-0.0180054
-0.0109863	-0.00549316	-0.0164795
-0.0100708	-0.00518799	-0.0152588
-0.0088501	-0.00549316	-0.0143433
-0.00701904	-0.00579834	-0.0128174
-0.00457764	-0.00579834	-0.010376
-0.00305176	-0.00518799	-0.00823975
-0.00274658	-0.00396729	-0.00671387
-0.00366211	-0.00274658	-0.00640869
-0.00518799	-0.00213623	-0.00732422
-0.00640869	-0.0012207	-0.00762939
-0.00732422	0.000305176	-0.00701904
-0.00793457	0.000610352	-0.00732422
-0.00823975	-0.000610352	-0.0088501
-0.00823975	-0.00152588	-0.00976563
-0.00823975	-0.00152588	-0.00976563
-0.00823975	-0.00183105	-0.0100708
-0.00793457	-0.00274658	-0.0106812
-0.00823975	-0.00396729	-0.012207
-0.0088501	-0.00488281	-0.0137329
-0.00946045	-0.00640869	-0.0158691
-0.0100708	-0.00732422	-0.017395
-0.0109863	-0.00762939	-0.0186157
-0.012207	-0.00701904	-0.0192261
-0.0134277	-0.00610352	-0.0195313
-0.0143433	-0.00610352	-0.0204468
-0.0137329	-0.00732422	-0.0210571
-0.0131226	-0.00915527	-0.0222778
-0.0125122	-0.0109863	-0.0234985
-0.0119019	-0.0125122	-0.0244141
-0.0109863	-0.0134277	-0.0244141
-0.0100708	-0.0143433	-0.0244141
-0.0088501	-0.0149536	-0.0238037
-0.00762939	-0.0158691	-0.0234985
-0.00701904	-0.017395	-0.0244141
-0.00732422	-0.0177002	-0.0250244
-0.00823975	-0.0164795	-0.0247192
-0.0088501	-0.0143433	-0.0231934
-0.00854492	-0.0131226	-0.0216675
-0.00823975	-0.0125122	-0.020752
-0.00762939	-0.0115967	-0.0192261
-0.00762939	-0.0100708	-0.0177002
-0.00762939	-0.0088501	-0.0164795
-0.00823975	-0.00793457	-0.0161743
-0.0088501	-0.00762939	-0.0164795
-0.00946045	-0.00762939	-0.0170898
-0.00915527	-0.00762939	-0.0167847
-0.00915527	-0.00762939	-0.0167847
-0.00915527	-0.00823975	-0.017395
-0.00946045	-0.00976563	-0.0192261
-0.0100708	-0.012207	-0.0222778
-0.0106812	-0.0140381	-0.0247192
-0.0109863	-0.0152588	-0.0262451
-0.0112915	-0.015564	-0.0268555
-0.0112915	-0.015564	-0.0268555
-0.0106812	-0.015564	-0.0262451
-0.00976563	-0.015564	-0.0253296
-0.00793457	-0.0152588	-0.0231934
-0.00640869	-0.0137329	-0.0201416
-0.00518799	-0.0125122	-0.0177002
-0.00488281	-0.0112915	-0.0161743
-0.00488281	-0.00976563	-0.0146484
-0.00488281	-0.00823975	-0.0131226
-0.00518799	-0.00762939	-0.0128174
-0.00610352	-0.00701904	-0.0131226
-0.00701904	-0.00579834	-0.0128174
-0.00823975	-0.00457764	-0.0128174
-0.00915527	-0.00335693	-0.0125122
-0.0100708	-0.00274658	-0.0128174
-0.00976563	-0.00335693	-0.0131226
-0.00915527	-0.00396729	-0.0131226
-0.00762939	-0.00488281	-0.0125122
-0.00579834	-0.00579834	-0.0115967
-0.00396729	-0.00732422	-0.0112915
-0.00274658	-0.00976563	-0.0125122
-0.00213623	-0.0125122	-0.0146484
-0.00213623	-0.0137329	-0.0158691
-0.00305176	-0.0143433	-0.017395
-0.00457764	-0.0146484	-0.0192261
-0.00671387	-0.015564	-0.0222778
-0.0088501	-0.0152588	-0.0241089
-0.0109863	-0.0128174	-0.0238037
-0.0125122	-0.0088501	-0.0213623
-0.0134277	-0.00549316	-0.0189209
-0.0131226	-0.00366211	-0.0167847
-0.0119019	-0.00305176	-0.0149536
-0.0106812	-0.00335693	-0.0140381
-0.00915527	-0.00396729	-0.0131226
-0.00762939	-0.00457764	-0.012207
-0.00610352	-0.00579834	-0.0119019
-0.00427246	-0.00793457	-0.012207
-0.00305176	-0.0106812	-0.0137329
-0.00244141	-0.0134277	-0.0158691
-0.00244141	-0.0158691	-0.0183105
-0.00274658	-0.0177002	-0.0204468
-0.00305176	-0.0189209	-0.0219727
-0.00366211	-0.0198364	-0.0234985
-0.00427246	-0.0198364	-0.0241089
-0.00427246	-0.0192261	-0.0234985
-0.00366211	-0.0183105	-0.0219727
-0.00396729	-0.017395	-0.0213623
-0.00427246	-0.0164795	-0.020752
-0.00488281	-0.0158691	-0.020752
-0.00488281	-0.0146484	-0.0195313
-0.00396729	-0.0128174	-0.0167847
-0.00366211	-0.0106812	-0.0143433
-0.00366211	-0.0088501	-0.0125122
-0.00427246	-0.00732422	-0.0115967
-0.00488281	-0.00640869	-0.0112915
-0.00518799	-0.00732422	-0.0125122
-0.00427246	-0.00946045	-0.0137329
-0.00335693	-0.0100708	-0.0134277
-0.00274658	-0.010376	-0.0131226
-0.00213623	-0.0115967	-0.0137329
-0.00183105	-0.0134277	-0.0152588
-0.00183105	-0.0149536	-0.0167847
-0.00183105	-0.015564	-0.017395
-0.00183105	-0.0158691	-0.0177002
-0.00183105	-0.0149536	-0.0167847
-0.00213623	-0.0134277	-0.015564
-0.00366211	-0.0125122	-0.0161743
-0.00518799	-0.012207	-0.017395
-0.00640869	-0.0115967	-0.0180054
-0.00701904	-0.0119019	-0.0189209
-0.00732422	-0.0119019	-0.0192261
-0.00793457	-0.0112915	-0.0192261
-0.00823975	-0.0109863	-0.0192261
-0.00823975	-0.0109863	-0.0192261
-0.00854492	-0.010376	-0.0189209
-0.00793457	-0.00976563	-0.0177002
-0.00701904	-0.00976563	-0.0167847
-0.00671387	-0.0100708	-0.0167847
-0.00640869	-0.010376	-0.0167847
-0.00671387	-0.0100708	-0.0167847
-0.00793457	-0.00946045	-0.017395
-0.010376	-0.0100708	-0.0204468
-0.0134277	-0.0112915	-0.0247192
-0.0158691	-0.012207	-0.0280762
-0.0177002	-0.0128174	-0.0305176
-0.0189209	-0.0131226	-0.0320435
-0.0192261	-0.0131226	-0.0323486
-0.0183105	-0.0131226	-0.0314331
-0.0164795	-0.012207	-0.0286865
-0.0128174	-0.010376	-0.0231934
-0.00823975	-0.00793457	-0.0161743
-0.00183105	-0.00640869	-0.00823975
0.00579834	-0.00579834	0
0.0143433	-0.00549316	0.0088501
0.0222778	-0.00488281	0.017395
0.0296021	-0.00396729	0.0256348
0.0360107	-0.00457764	0.0314331
0.0415039	-0.00610352	0.0354004
0.0460815	-0.00732422	0.0387573
0.0491333	-0.0088501	0.0402832
0.0512695	-0.00976563	0.0415039
0.0518799	-0.00976563	0.0421143
0.0515747	-0.00854492	0.0430298
0.0509644	-0.00610352	0.0448608
0.0500488	-0.00305176	0.0469971
0.0491333	-0.000915527	0.0482178
0.0476074	0.0012207	0.0488281
0.0463867	0.00335693	0.0497437
0.0457764	0.00457764	0.050354
0.0460815	0.00396729	0.0500488
0.0463867	0.0012207	0.0476074
0.0463867	-0.00427246	0.0421143
0.0460815	-0.012207	0.0338745
0.0457764	-0.0210571	0.0247192
0.0454712	-0.0305176	0.0149536
0.0448608	-0.0396729	0.00518799
0.0436401	-0.0473022	-0.00366211
0.0411987	-0.0531006	-0.0119019
0.0378418	-0.0564575	-0.0186157
0.0323486	-0.0567627	-0.0244141
0.0247192	-0.0534058	-0.0286865
0.0167847	-0.0466919	-0.0299072
0.0088501	-0.0387573	-0.0299072
0.000610352	-0.0302124	-0.0296021
-0.00823975	-0.0213623	-0.0296021
-0.0177002	-0.012207	-0.0299072
-0.0265503	-0.00427246	-0.0308228
-0.0335693	0.0012207	-0.0323486
-0.0384521	0.00366211	-0.03479
-0.0415039	0.00396729	-0.0375366
-0.0427246	0.00305176	-0.0396729
-0.0430298	0.00183105	-0.0411987
-0.0424194	0.000305176	-0.0421143
-0.0415039	-0.00183105	-0.043335
-0.039978	-0.00457764	-0.0445557
-0.0378418	-0.00671387	-0.0445557
-0.0363159	-0.00762939	-0.0439453
-0.0341797	-0.00671387	-0.0408936
-0.0317383	-0.00488281	-0.0366211
-0.0292969	-0.00305176	-0.0323486
-0.0268555	-0.00183105	-0.0286865
-0.0250244	-0.0012207	-0.0262451
-0.0234985	-0.000610352	-0.0241089
-0.0216675	0.000610352	-0.0210571
-0.0201416	0.00152588	-0.0186157
-0.0192261	0.00274658	-0.0164795
-0.0192261	0.00488281	-0.0143433
-0.0204468	0.0088501	-0.0115967
-0.0238037	0.0152588	-0.00854492
-0.0286865	0.0241089	-0.00457764
-0.0326538	0.0320435	-0.000610352
-0.0335693	0.0375366	0.00396729
-0.0292969	0.0411987	0.0119019
-0.0198364	0.0427246	0.0228882
-0.00488281	0.0402832	0.0354004
0.0158691	0.0320435	0.0479126
0.0427246	0.017395	0.0601196
0.0756836	-0.00274658	0.072937
0.112915	-0.0271606	0.0857544
0.151978	-0.0518799	0.100098
0.189209	-0.0732422	0.115967
0.220642	-0.0863647	0.134277
0.242004	-0.0891113	0.152893
0.249329	-0.0796509	0.169678
0.242004	-0.057373	0.184631
0.219727	-0.0244141	0.195313
0.184937	0.0167847	0.201721
0.140991	0.0598145	0.200806
0.0924683	0.0973511	0.189819
0.0436401	0.124207	0.167847
-0.00213623	0.137939	0.135803
-0.0421143	0.137634	0.09552
-0.0726318	0.122986	0.050354
-0.0930786	0.0946045	0.00152588
-0.102234	0.0561523	-0.0460815
-0.102539	0.0128174	-0.0897217
-0.0964355	-0.0292969	-0.125732
-0.0872803	-0.0637817	-0.151062
-0.0775146	-0.0866699	-0.164185
-0.0686646	-0.0973511	-0.166016
-0.0616455	-0.0976563	-0.159302
-0.0570679	-0.0897217	-0.14679
-0.0540161	-0.0762939	-0.13031
-0.0521851	-0.0595093	-0.111694
-0.050354	-0.0427246	-0.0930786
-0.0482178	-0.0286865	-0.0769043
-0.0448608	-0.0192261	-0.0640869
-0.0408936	-0.0146484	-0.055542
-0.0366211	-0.0137329	-0.050354
-0.0323486	-0.0152588	-0.0476074
-0.0283813	-0.017395	-0.0457764
-0.0250244	-0.0180054	-0.0430298
-0.0231934	-0.0177002	-0.0408936
-0.0222778	-0.0167847	-0.0390625
-0.0219727	-0.0152588	-0.0372314
-0.0222778	-0.0134277	-0.0357056
-0.022583	-0.0115967	-0.0341797
-0.0228882	-0.0112915	-0.0341797
-0.0228882	-0.0119019	-0.03479
-0.022583	-0.0125122	-0.0350952
-0.0219727	-0.0137329	-0.0357056
-0.0216675	-0.0149536	-0.0366211
-0.0213623	-0.0170898	-0.0384521
-0.020752	-0.0180054	-0.0387573
-0.0201416	-0.0180054	-0.038147
-0.0192261	-0.0180054	-0.0372314
-0.0183105	-0.017395	-0.0357056
-0.017395	-0.0161743	-0.0335693
-0.015564	-0.015564	-0.0311279
-0.0134277	-0.015564	-0.0289917
-0.0119019	-0.015564	-0.0274658
-0.0112915	-0.0149536	-0.0262451
-0.0112915	-0.0140381	-0.0253296
-0.0119019	-0.0140381	-0.0259399
-0.0128174	-0.0140381	-0.0268555
-0.0137329	-0.0143433	-0.0280762
-0.0146484	-0.0137329	-0.0283813
-0.015564	-0.0128174	-0.0283813
-0.0161743	-0.012207	-0.0283813
-0.0158691	-0.0119019	-0.027771
-0.0137329	-0.0112915	-0.0250244
-0.0100708	-0.0112915	-0.0213623
-0.00549316	-0.0115967	-0.0170898
-0.000610352	-0.0125122	-0.0131226
0.00457764	-0.0143433	-0.00976563
0.00915527	-0.0164795	-0.00732422
0.0131226	-0.0186157	-0.00549316
0.015564	-0.020752	-0.00518799
0.0167847	-0.0216675	-0.00488281
0.0167847	-0.0213623	-0.00457764
0.015564	-0.0216675	-0.00610352
0.0140381	-0.0222778	-0.00823975
0.0119019	-0.022583	-0.0106812
0.00976563	-0.0219727	-0.012207
0.00793457	-0.0213623	-0.0134277
0.00671387	-0.020752	-0.0140381
0.00610352	-0.0201416	-0.0140381
0.00610352	-0.0204468	-0.0143433
0.00793457	-0.0216675	-0.0137329
0.00976563	-0.0228882	-0.0131226
0.0112915	-0.0244141	-0.0131226
0.012207	-0.0259399	-0.0137329
0.0131226	-0.0268555	-0.0137329
0.0140381	-0.0265503	-0.0125122
0.0143433	-0.0262451	-0.0119019
0.0149536	-0.0265503	-0.0115967
0.0158691	-0.0262451	-0.010376
0.017395	-0.0250244	-0.00762939
0.0192261	-0.0234985	-0.00427246
0.0210571	-0.0231934	-0.00213623
0.022583	-0.0238037	-0.0012207
0.0241089	-0.0256348	-0.00152588
0.0259399	-0.0274658	-0.00152588
0.027771	-0.0296021	-0.00183105
0.0289917	-0.0326538	-0.00366211
0.0302124	-0.0360107	-0.00579834
0.0311279	-0.0393677	-0.00823975
0.0320435	-0.0421143	-0.0100708
0.032959	-0.0436401	-0.0106812
0.0341797	-0.045166	-0.0109863
0.0357056	-0.0460815	-0.010376
0.0375366	-0.0466919	-0.00915527
0.0393677	-0.0482178	-0.0088501
0.0415039	-0.0497437	-0.00823975
0.0442505	-0.0509644	-0.00671387
0.0473022	-0.0518799	-0.00457764
0.050354	-0.0521851	-0.00183105
0.0527954	-0.0524902	0.000305176
0.0549316	-0.0531006	0.00183105
0.0564575	-0.0546265	0.00183105
0.057373	-0.0561523	0.0012207
0.0579834	-0.0570679	0.000915527
0.0582886	-0.0585938	-0.000305176
0.0592041	-0.0604248	-0.0012207
0.0604248	-0.062561	-0.00213623
0.0616455	-0.0643921	-0.00274658
0.0628662	-0.0662231	-0.00335693
0.0640869	-0.0683594	-0.00427246
0.0653076	-0.0698853	-0.00457764
0.0671387	-0.0714111	-0.00427246
0.0686646	-0.0720215	-0.00335693
0.0695801	-0.0717163	-0.00213623
0.0698853	-0.0708008	-0.000915527
0.0704956	-0.0704956	0
0.0704956	-0.0708008	-0.000305176
0.0695801	-0.0714111	-0.00183105
0.0674438	-0.0726318	-0.00518799
0.0646973	-0.0732422	-0.00854492
0.0622559	-0.0735474	-0.0112915
0.0604248	-0.0735474	-0.0131226
0.0588989	-0.072937	-0.0140381
0.0576782	-0.071106	-0.0134277
0.0564575	-0.0686646	-0.012207
0.0546265	-0.0656128	-0.0109863
0.0524902	-0.0622559	-0.00976563
0.0500488	-0.0579834	-0.00793457
0.0476074	-0.0521851	-0.00457764
0.0448608	-0.0466919	-0.00183105
0.0415039	-0.0421143	-0.000610352
0.0372314	-0.0384521	-0.0012207
0.0323486	-0.0344849	-0.00213623
0.0265503	-0.0305176	-0.00396729
0.0204468	-0.0259399	-0.00549316
0.0146484	-0.020752	-0.00610352
0.00823975	-0.0158691	-0.00762939
0.00274658	-0.012207	-0.00946045
-0.0012207	-0.0100708	-0.0112915
-0.00518799	-0.00762939	-0.0128174
-0.00976563	-0.00488281	-0.0146484
-0.0146484	-0.00274658	-0.017395
-0.0186157	-0.0012207	-0.0198364
-0.0216675	-0.000610352	-0.0222778
-0.0238037	0	-0.0238037
-0.0253296	0.000610352	-0.0247192
-0.0268555	0.0012207	-0.0256348
-0.0286865	0.00183105	-0.0268555
-0.0308228	0.00335693	-0.0274658
-0.032959	0.00518799	-0.027771
-0.0341797	0.00610352	-0.0280762
-0.0344849	0.00732422	-0.0271606
-0.03479	0.00854492	-0.0262451
-0.0350952	0.00976563	-0.0253296
-0.0354004	0.00976563	-0.0256348
-0.0357056	0.00823975	-0.0274658
-0.0350952	0.00579834	-0.0292969
-0.0338745	0.00366211	-0.0302124
-0.0320435	0.00274658	-0.0292969
-0.0305176	0.00152588	-0.0289917
-0.0296021	0	-0.0296021
-0.0292969	-0.0012207	-0.0305176
-0.0292969	-0.0012207	-0.0305176
-0.0292969	-0.000610352	-0.0299072
-0.0292969	0.000305176	-0.0289917
-0.0292969	0.0012207	-0.0280762
-0.0296021	0.00183105	-0.027771
-0.0296021	0.00183105	-0.027771
-0.0289917	0.00152588	-0.0274658
-0.0280762	0.0012207	-0.0268555
-0.0265503	0.000305176	-0.0262451
-0.0244141	-0.000915527	-0.0253296
-0.0222778	-0.00305176	-0.0253296
-0.0204468	-0.00549316	-0.0259399
-0.0186157	-0.00762939	-0.0262451
-0.0170898	-0.00976563	-0.0268555
-0.0161743	-0.0106812	-0.0268555
-0.0158691	-0.0100708	-0.0259399
-0.0164795	-0.00793457	-0.0244141
-0.0177002	-0.00610352	-0.0238037
-0.0189209	-0.00518799	-0.0241089
-0.0204468	-0.00427246	-0.0247192
-0.0222778	-0.00305176	-0.0253296
-0.0241089	-0.00213623	-0.0262451
-0.0256348	-0.0012207	-0.0268555
-0.0262451	0	-0.0262451
-0.0259399	0.000305176	-0.0256348
-0.0244141	0	-0.0244141
-0.0222778	-0.000915527	-0.0231934
-0.0201416	-0.00213623	-0.0222778
-0.0177002	-0.00335693	-0.0210571
-0.0149536	-0.00427246	-0.0192261
-0.012207	-0.00427246	-0.0164795
-0.00946045	-0.00427246	-0.0137329
-0.00732422	-0.00457764	-0.0119019
-0.00579834	-0.00488281	-0.0106812
-0.00549316	-0.00579834	-0.0112915
-0.00640869	-0.00701904	-0.0134277
-0.00762939	-0.00793457	-0.015564
-0.00854492	-0.00793457	-0.0164795
-0.00946045	-0.00701904	-0.0164795
-0.010376	-0.00518799	-0.015564
-0.0109863	-0.00305176	-0.0140381
-0.0112915	-0.00152588	-0.0128174
-0.0119019	0	-0.0119019
-0.012207	0.00183105	-0.010376
-0.012207	0.00427246	-0.00793457
-0.0115967	0.00549316	-0.00610352
-0.0106812	0.00579834	-0.00488281
-0.0100708	0.00488281	-0.00518799
-0.00946045	0.00396729	-0.00549316
-0.00915527	0.00244141	-0.00671387
-0.00946045	0.000305176	-0.00915527
-0.010376	-0.000915527	-0.0112915
-0.0109863	-0.00213623	-0.0131226
-0.0112915	-0.00457764	-0.0158691
-0.0115967	-0.00671387	-0.0183105
-0.0115967	-0.00671387	-0.0183105
-0.0112915	-0.00549316	-0.0167847
-0.0109863	-0.00366211	-0.0146484
-0.0106812	-0.00183105	-0.0125122
-0.00976563	-0.000305176	-0.0100708
-0.00823975	0.000305176	-0.00793457
-0.00701904	0.000915527	-0.00610352
-0.00549316	0.00213623	-0.00335693
-0.00488281	0.00366211	-0.0012207
-0.00457764	0.00457764	0
-0.00457764	0.00457764	0
-0.00488281	0.00305176	-0.00183105
-0.00549316	0.000915527	-0.00457764
-0.00640869	-0.00152588	-0.00793457
-0.00732422	-0.00366211	-0.0109863
-0.00823975	-0.00549316	-0.0137329
-0.00946045	-0.00640869	-0.0158691
-0.010376	-0.00610352	-0.0164795
-0.0109863	-0.00518799	-0.0161743
-0.0109863	-0.00457764	-0.015564
-0.0106812	-0.00396729	-0.0146484
-0.010376	-0.00183105	-0.012207
-0.0100708	0.00213623	-0.00793457
-0.00915527	0.00610352	-0.00305176
-0.00732422	0.00854492	0.0012207
-0.00549316	0.00946045	0.00396729
-0.00366211	0.0088501	0.00518799
-0.00213623	0.00701904	0.00488281
-0.000915527	0.00488281	0.00396729
-0.000610352	0.00274658	0.00213623
-0.0012207	0.000915527	-0.000305176
-0.00244141	0	-0.00244141
-0.00396729	-0.000915527	-0.00488281
-0.00549316	-0.00183105	-0.00732422
-0.00762939	-0.00213623	-0.00976563
-0.00976563	-0.0012207	-0.0109863
-0.012207	0.000305176	-0.0119019
-0.0137329	0.00213623	-0.0115967
-0.0146484	0.00427246	-0.010376
-0.0143433	0.00671387	-0.00762939
-0.0134277	0.00823975	-0.00518799
-0.0119019	0.00823975	-0.00366211
-0.0100708	0.00732422	-0.00274658
-0.00793457	0.00579834	-0.00213623
-0.00579834	0.00305176	-0.00274658
-0.00396729	0.0012207	-0.00274658
-0.00274658	0.0012207	-0.00152588
-0.00244141	0.00213623	-0.000305176
-0.00274658	0.00274658	0
-0.00305176	0.00305176	0
-0.00366211	0.00427246	0.000610352
-0.00518799	0.00610352	0.000915527
-0.00701904	0.00823975	0.0012207
-0.0088501	0.0100708	0.0012207
-0.0106812	0.0119019	0.0012207
-0.012207	0.0134277	0.0012207
-0.0134277	0.0143433	0.000915527
-0.0143433	0.0131226	-0.0012207
-0.0143433	0.0109863	-0.00335693
-0.0134277	0.0088501	-0.00457764
-0.0125122	0.00701904	-0.00549316
-0.0115967	0.00549316	-0.00610352
-0.0109863	0.00396729	-0.00701904
-0.0100708	0.00213623	-0.00793457
-0.00915527	0.000915527	-0.00823975
-0.00823975	0.000915527	-0.00732422
-0.00762939	0.00183105	-0.00579834
-0.00762939	0.00366211	-0.00396729
-0.00793457	0.00579834	-0.00213623
-0.00793457	0.00823975	0.000305176
-0.00793457	0.0112915	0.00335693
-0.00823975	0.0143433	0.00610352
-0.00946045	0.0164795	0.00701904
-0.010376	0.0180054	0.00762939
-0.0109863	0.0192261	0.00823975
-0.0109863	0.0195313	0.00854492
-0.0109863	0.0183105	0.00732422
-0.0106812	0.0167847	0.00610352
-0.010376	0.0149536	0.00457764
-0.0100708	0.0131226	0.00305176
-0.00915527	0.0112915	0.00213623
-0.00762939	0.00976563	0.00213623
-0.00640869	0.00915527	0.00274658
-0.00488281	0.00823975	0.00335693
-0.00396729	0.00762939	0.00366211
-0.00366211	0.00793457	0.00427246
-0.00396729	0.00976563	0.00579834
-0.00457764	0.0119019	0.00732422
-0.00518799	0.0134277	0.00823975
-0.00579834	0.0140381	0.00823975
-0.00610352	0.0140381	0.00793457
-0.00640869	0.0140381	0.00762939
-0.00701904	0.0146484	0.00762939
-0.00732422	0.0149536	0.00762939
-0.00762939	0.0146484	0.00701904
-0.00793457	0.0137329	0.00579834
-0.00823975	0.0131226	0.00488281
-0.00854492	0.0119019	0.00335693
-0.00915527	0.0100708	0.000915527
-0.00976563	0.0088501	-0.000915527
-0.0109863	0.00854492	-0.00244141
-0.0119019	0.0088501	-0.00305176
-0.0119019	0.00915527	-0.00274658
-0.0115967	0.0088501	-0.00274658
-0.010376	0.00854492	-0.00183105
-0.00854492	0.00793457	-0.000610352
-0.00610352	0.00762939	0.00152588
-0.00335693	0.00793457	0.00457764
-0.000610352	0.00823975	0.00762939
0.00152588	0.00793457	0.00946045
0.00305176	0.00732422	0.010376
0.00427246	0.00610352	0.010376
0.00488281	0.00488281	0.00976563
0.00427246	0.00396729	0.00823975
0.00305176	0.00396729	0.00701904
0.0012207	0.00457764	0.00579834
-0.000305176	0.00579834	0.00549316
-0.000915527	0.00701904	0.00610352
-0.0012207	0.00762939	0.00640869
-0.000915527	0.00701904	0.00610352
0	0.00640869	0.00640869
0.00152588	0.00610352	0.00762939
0.00427246	0.00640869	0.0106812
0.00762939	0.00610352	0.0137329
0.0119019	0.00549316	0.017395
0.015564	0.00488281	0.0204468
0.0183105	0.00488281	0.0231934
0.0204468	0.00518799	0.0256348
0.0234985	0.00488281	0.0283813
0.0271606	0.00457764	0.0317383
0.0299072	0.00579834	0.0357056
0.0317383	0.00823975	0.039978
0.0326538	0.0100708	0.0427246
0.0335693	0.0112915	0.0448608
0.0344849	0.0125122	0.0469971
0.0360107	0.0134277	0.0494385
0.0375366	0.0140381	0.0515747
0.0393677	0.0134277	0.0527954
0.0411987	0.0115967	0.0527954
0.0424194	0.0088501	0.0512695
0.043335	0.00457764	0.0479126
0.0442505	-0.00183105	0.0424194
0.0454712	-0.00946045	0.0360107
0.0466919	-0.0170898	0.0296021
0.0469971	-0.0244141	0.022583
0.0460815	-0.0314331	0.0146484
0.0439453	-0.0375366	0.00640869
0.0402832	-0.0418091	-0.00152588
0.0354004	-0.0442505	-0.0088501
0.0292969	-0.0448608	-0.015564
0.022583	-0.0418091	-0.0192261
0.0149536	-0.0363159	-0.0213623
0.00732422	-0.0292969	-0.0219727
-0.000305176	-0.0216675	-0.0219727
-0.00793457	-0.0143433	-0.0222778
-0.0149536	-0.00823975	-0.0231934
-0.0216675	-0.00335693	-0.0250244
-0.0271606	0.000305176	-0.0268555
-0.0317383	0.00335693	-0.0283813
-0.0354004	0.00549316	-0.0299072
-0.0372314	0.00610352	-0.0311279
-0.0375366	0.00549316	-0.0320435
-0.0366211	0.00366211	-0.032959
-0.0341797	0.0012207	-0.032959
-0.0311279	-0.000915527	-0.0320435
-0.0280762	-0.00213623	-0.0302124
-0.0244141	-0.00335693	-0.027771
-0.0210571	-0.00427246	-0.0253296
-0.0183105	-0.00518799	-0.0234985
-0.0161743	-0.00671387	-0.0228882
-0.0146484	-0.00732422	-0.0219727
-0.0140381	-0.00762939	-0.0216675
-0.0140381	-0.00793457	-0.0219727
-0.0149536	-0.00793457	-0.0228882
-0.0164795	-0.00762939	-0.0241089
-0.0180054	-0.00640869	-0.0244141
-0.0195313	-0.00366211	-0.0231934
-0.0213623	0.000915527	-0.0204468
-0.0238037	0.00854492	-0.0152588
-0.0271606	0.0183105	-0.0088501
-0.0299072	0.0286865	-0.0012207
-0.0296021	0.0363159	0.00671387
-0.0247192	0.039978	0.0152588
-0.0161743	0.0405884	0.0244141
-0.00274658	0.0369263	0.0341797
0.0161743	0.0274658	0.0436401
0.0411987	0.0128174	0.0540161
0.0723267	-0.00671387	0.0656128
0.107422	-0.0302124	0.0772095
0.143738	-0.0537109	0.0900269
0.178223	-0.0738525	0.10437
0.206909	-0.0857544	0.121155
0.225525	-0.0866699	0.138855
0.232239	-0.0756836	0.156555
0.224915	-0.0537109	0.171204
0.204163	-0.0213623	0.1828
0.171204	0.0167847	0.187988
0.130005	0.0537109	0.183716
0.085144	0.0836182	0.168762
0.0405884	0.102234	0.142822
-0.000305176	0.107422	0.107117
-0.0357056	0.0997925	0.0640869
-0.0631714	0.0790405	0.0158691
-0.0814819	0.0473022	-0.0341797
-0.090332	0.00854492	-0.0817871
-0.0912476	-0.0308228	-0.12207
-0.0866699	-0.0665283	-0.153198
-0.0793457	-0.0942993	-0.173645
-0.0717163	-0.111084	-0.1828
-0.0650024	-0.115662	-0.180664
-0.0595093	-0.109253	-0.168762
-0.0558472	-0.0949097	-0.150757
-0.0534058	-0.0759888	-0.129395
-0.0515747	-0.0561523	-0.107727
-0.0497437	-0.0384521	-0.0881958
-0.0466919	-0.0253296	-0.0720215
-0.0427246	-0.017395	-0.0601196
-0.0378418	-0.0134277	-0.0512695
-0.0326538	-0.0128174	-0.0454712
-0.0280762	-0.0140381	-0.0421143
-0.0247192	-0.0167847	-0.0415039
-0.022583	-0.0201416	-0.0427246
-0.0213623	-0.0228882	-0.0442505
-0.0213623	-0.0234985	-0.0448608
-0.0222778	-0.022583	-0.0448608
-0.0234985	-0.0198364	-0.043335
-0.0244141	-0.0164795	-0.0408936
-0.0247192	-0.0134277	-0.038147
-0.0244141	-0.0106812	-0.0350952
-0.0238037	-0.0088501	-0.0326538
-0.0228882	-0.00640869	-0.0292969
-0.0216675	-0.00396729	-0.0256348
-0.0198364	-0.00213623	-0.0219727
-0.0180054	-0.00152588	-0.0195313
-0.0161743	-0.00274658	-0.0189209
-0.0143433	-0.00488281	-0.0192261
-0.0128174	-0.00732422	-0.0201416
-0.0115967	-0.0088501	-0.0204468
-0.0112915	-0.00915527	-0.0204468
-0.0106812	-0.00946045	-0.0201416
-0.0100708	-0.0106812	-0.020752
-0.00976563	-0.0119019	-0.0216675
-0.00976563	-0.0125122	-0.0222778
-0.00976563	-0.0119019	-0.0216675
-0.00976563	-0.010376	-0.0201416
-0.0100708	-0.0088501	-0.0189209
-0.00976563	-0.00793457	-0.0177002
-0.00946045	-0.00762939	-0.0170898
-0.00946045	-0.00732422	-0.0167847
-0.00915527	-0.00762939	-0.0167847
-0.0088501	-0.00823975	-0.0170898
-0.00793457	-0.0088501	-0.0167847
-0.00793457	-0.00854492	-0.0164795
-0.00793457	-0.00732422	-0.0152588
-0.00762939	-0.00640869	-0.0140381
-0.00701904	-0.00610352	-0.0131226
-0.00610352	-0.00610352	-0.012207
-0.00488281	-0.00579834	-0.0106812
-0.00396729	-0.00488281	-0.0088501
-0.00366211	-0.00366211	-0.00732422
-0.00305176	-0.00305176	-0.00610352
-0.00244141	-0.00366211	-0.00610352
-0.00152588	-0.00427246	-0.00579834
-0.000915527	-0.00396729	-0.00488281
-0.000305176	-0.00366211	-0.00396729
0	-0.00427246	-0.00427246
0.000915527	-0.00549316	-0.00457764
0.00213623	-0.00579834	-0.00366211
0.00335693	-0.00579834	-0.00244141
0.00366211	-0.00610352	-0.00244141
0.00488281	-0.00701904	-0.00213623
0.00640869	-0.00732422	-0.000915527
0.0088501	-0.00762939	0.0012207
0.0112915	-0.00762939	0.00366211
0.0137329	-0.00823975	0.00549316
0.0158691	-0.00976563	0.00610352
0.0170898	-0.0109863	0.00610352
0.017395	-0.0119019	0.00549316
0.017395	-0.0128174	0.00457764
0.0170898	-0.0131226	0.00396729
0.017395	-0.0125122	0.00488281
0.0186157	-0.0119019	0.00671387
0.0195313	-0.0119019	0.00762939
0.020752	-0.0128174	0.00793457
0.0216675	-0.0146484	0.00701904
0.0228882	-0.015564	0.00732422
0.0247192	-0.0167847	0.00793457
0.0271606	-0.017395	0.00976563
0.0296021	-0.0183105	0.0112915
0.0317383	-0.020752	0.0109863
0.0332642	-0.0244141	0.0088501
0.0344849	-0.027771	0.00671387
0.0354004	-0.0308228	0.00457764
0.0357056	-0.0335693	0.00213623
0.0354004	-0.0341797	0.0012207
0.0354004	-0.0335693	0.00183105
0.0360107	-0.032959	0.00305176
0.0372314	-0.0338745	0.00335693
0.0387573	-0.0357056	0.00305176
0.0408936	-0.0372314	0.00366211
0.043335	-0.0375366	0.00579834
0.0460815	-0.0378418	0.00823975
0.0488281	-0.0390625	0.00976563
0.0512695	-0.0415039	0.00976563
0.0534058	-0.0439453	0.00946045
0.0552368	-0.0463867	0.0088501
0.0570679	-0.0482178	0.0088501
0.0582886	-0.0488281	0.00946045
0.0585938	-0.0482178	0.010376
0.0588989	-0.0476074	0.0112915
0.0595093	-0.0476074	0.0119019
0.0604248	-0.0469971	0.0134277
0.0610352	-0.0454712	0.015564
0.0616455	-0.0445557	0.0170898
0.062561	-0.0445557	0.0180054
0.0628662	-0.0448608	0.0180054
0.0631714	-0.0454712	0.0177002
0.0631714	-0.0460815	0.0170898
0.0631714	-0.0473022	0.0158691
0.0619507	-0.0485229	0.0134277
0.0595093	-0.0491333	0.010376
0.0558472	-0.0488281	0.00701904
0.0515747	-0.0482178	0.00335693
0.0473022	-0.0463867	0.000915527
0.0427246	-0.0430298	-0.000305176
0.0384521	-0.0387573	-0.000305176
0.0341797	-0.03479	-0.000610352
0.0305176	-0.0299072	0.000610352
0.0265503	-0.0241089	0.00244141
0.0228882	-0.0186157	0.00427246
0.0198364	-0.0137329	0.00610352
0.0164795	-0.00854492	0.00793457
0.0134277	-0.00366211	0.00976563
0.0100708	0	0.0100708
0.00610352	0.00244141	0.00854492
0.0012207	0.00488281	0.00610352
-0.00366211	0.00671387	0.00305176
-0.00854492	0.00823975	-0.000305176
-0.0134277	0.00854492	-0.00488281
-0.0186157	0.00854492	-0.0100708
-0.0231934	0.00793457	-0.0152588
-0.0271606	0.00793457	-0.0192261
-0.0308228	0.00946045	-0.0213623
-0.0335693	0.0119019	-0.0216675
-0.0357056	0.0143433	-0.0213623
-0.0369263	0.015564	-0.0213623
-0.0366211	0.0152588	-0.0213623
-0.0366211	0.0152588	-0.0213623
-0.0369263	0.015564	-0.0213623
-0.0372314	0.0158691	-0.0213623
-0.0363159	0.0149536	-0.0213623
-0.0357056	0.012207	-0.0234985
-0.0354004	0.0088501	-0.0265503
-0.0354004	0.00579834	-0.0296021
-0.0357056	0.00274658	-0.032959
-0.0354004	0.000610352	-0.03479
-0.0350952	-0.000915527	-0.0360107
-0.0350952	-0.00152588	-0.0366211
-0.03479	-0.0012207	-0.0360107
-0.0338745	-0.000610352	-0.0344849
-0.0323486	0	-0.0323486
-0.0302124	0.000915527	-0.0292969
-0.0283813	0.00213623	-0.0262451
-0.0268555	0.00305176	-0.0238037
-0.0253296	0.00396729	-0.0213623
-0.0244141	0.00427246	-0.0201416
-0.0241089	0.00427246	-0.0198364
-0.0238037	0.00396729	-0.0198364
-0.0241089	0.00366211	-0.0204468
-0.0238037	0.00335693	-0.0204468
-0.0228882	0.00427246	-0.0186157
-0.0219727	0.00518799	-0.0167847
-0.0210571	0.00610352	-0.0149536
-0.0204468	0.00640869	-0.0140381
-0.0195313	0.00579834	-0.0137329
-0.0180054	0.00427246	-0.0137329
-0.017395	0.00366211	-0.0137329
-0.0177002	0.00335693	-0.0143433
-0.0180054	0.00244141	-0.015564
-0.0177002	0	-0.0177002
-0.0177002	-0.00274658	-0.0204468
-0.0183105	-0.00457764	-0.0228882
-0.0189209	-0.00518799	-0.0241089
-0.0192261	-0.00610352	-0.0253296
-0.0186157	-0.00671387	-0.0253296
-0.0180054	-0.00671387	-0.0247192
-0.0170898	-0.00610352	-0.0231934
-0.0158691	-0.00549316	-0.0213623
-0.0143433	-0.00549316	-0.0198364
-0.0128174	-0.00549316	-0.0183105
-0.0109863	-0.00518799	-0.0161743
-0.00946045	-0.00457764	-0.0140381
-0.0088501	-0.00427246	-0.0131226
-0.00854492	-0.00457764	-0.0131226
-0.00823975	-0.00457764	-0.0128174
-0.00732422	-0.00427246	-0.0115967
-0.00610352	-0.00427246	-0.010376
-0.00518799	-0.00396729	-0.00915527
-0.00488281	-0.00305176	-0.00793457
-0.00518799	-0.00213623	-0.00732422
-0.00610352	-0.00213623	-0.00823975
-0.00762939	-0.00183105	-0.00946045
-0.0100708	-0.00183105	-0.0119019
-0.0125122	-0.00213623	-0.0146484
-0.0146484	-0.00183105	-0.0164795
-0.0161743	-0.0012207	-0.017395
-0.017395	-0.000610352	-0.0180054
-0.0186157	-0.000305176	-0.0189209
-0.0189209	-0.000305176	-0.0192261
-0.0183105	-0.000305176	-0.0186157
-0.0167847	-0.000305176	-0.0170898
-0.0152588	0.000305176	-0.0149536
-0.0131226	0.000610352	-0.0125122
-0.0115967	0	-0.0115967
-0.010376	-0.000915527	-0.0112915
-0.00946045	-0.00213623	-0.0115967
-0.00854492	-0.00366211	-0.012207
-0.00762939	-0.00518799	-0.0128174
-0.00793457	-0.00640869	-0.0143433
-0.00823975	-0.00762939	-0.0158691
-0.00915527	-0.00762939	-0.0167847
-0.0100708	-0.00732422	-0.017395
-0.010376	-0.00762939	-0.0180054
-0.0106812	-0.00793457	-0.0186157
-0.0109863	-0.00823975	-0.0192261
-0.0109863	-0.00793457	-0.0189209
-0.0112915	-0.00671387	-0.0180054
-0.0115967	-0.00488281	-0.0164795
-0.0125122	-0.00366211	-0.0161743
-0.0131226	-0.00396729	-0.0170898
-0.0134277	-0.00488281	-0.0183105
-0.0128174	-0.00579834	-0.0186157
-0.0119019	-0.00610352	-0.0180054
-0.010376	-0.00610352	-0.0164795
-0.00854492	-0.00549316	-0.0140381
-0.00701904	-0.00457764	-0.0115967
-0.00549316	-0.00366211	-0.00915527
-0.00427246	-0.00366211	-0.00793457
-0.00335693	-0.00488281	-0.00823975
-0.00335693	-0.00579834	-0.00915527
-0.00366211	-0.00488281	-0.00854492
-0.00457764	-0.00213623	-0.00671387
-0.00549316	0	-0.00549316
-0.00701904	0.000915527	-0.00610352
-0.00854492	0.00183105	-0.00671387
-0.0100708	0.00335693	-0.00671387
-0.0112915	0.00396729	-0.00732422
-0.0125122	0.00396729	-0.00854492
-0.0125122	0.00274658	-0.00976563
-0.0119019	0.0012207	-0.0106812
-0.010376	-0.00152588	-0.0119019
-0.0088501	-0.00488281	-0.0137329
-0.00732422	-0.00823975	-0.015564
-0.00579834	-0.0109863	-0.0167847
-0.00427246	-0.0131226	-0.017395
-0.00305176	-0.0149536	-0.0180054
-0.00183105	-0.0164795	-0.0183105
-0.000610352	-0.017395	-0.0180054
0	-0.017395	-0.017395
0	-0.015564	-0.015564
-0.000915527	-0.0131226	-0.0140381
-0.00244141	-0.0106812	-0.0131226
-0.00427246	-0.00915527	-0.0134277
-0.00579834	-0.00915527	-0.0149536
-0.00701904	-0.00976563	-0.0167847
-0.00823975	-0.00946045	-0.0177002
-0.00946045	-0.00854492	-0.0180054
-0.010376	-0.00823975	-0.0186157
-0.0106812	-0.00732422	-0.0180054
-0.0106812	-0.00579834	-0.0164795
-0.010376	-0.00457764	-0.0149536
-0.0100708	-0.00366211	-0.0137329
-0.010376	-0.00244141	-0.0128174
-0.0106812	-0.000915527	-0.0115967
-0.010376	0.000305176	-0.0100708
-0.0100708	0.000915527	-0.00915527
-0.00976563	0.000305176	-0.00946045
-0.00946045	-0.0012207	-0.0106812
-0.00854492	-0.00274658	-0.0112915
-0.00762939	-0.00366211	-0.0112915
-0.00701904	-0.00396729	-0.0109863
-0.00610352	-0.00427246	-0.010376
-0.00518799	-0.00518799	-0.010376
-0.00457764	-0.00610352	-0.0106812
-0.00366211	-0.00701904	-0.0106812
-0.00335693	-0.00671387	-0.0100708
-0.00305176	-0.00549316	-0.00854492
-0.00335693	-0.00396729	-0.00732422
-0.00427246	-0.00244141	-0.00671387
-0.00579834	-0.00244141	-0.00823975
-0.00732422	-0.00305176	-0.010376
-0.0088501	-0.00366211	-0.0125122
-0.010376	-0.00396729	-0.0143433
-0.0115967	-0.00366211	-0.0152588
-0.0125122	-0.00427246	-0.0167847
-0.0128174	-0.00579834	-0.0186157
-0.0125122	-0.00701904	-0.0195313
-0.0125122	-0.00762939	-0.0201416
-0.0119019	-0.00762939	-0.0195313
-0.0109863	-0.00793457	-0.0189209
-0.0100708	-0.00823975	-0.0183105
-0.00946045	-0.00823975	-0.0177002
-0.0088501	-0.00732422	-0.0161743
-0.00793457	-0.00579834	-0.0137329
-0.00732422	-0.00427246	-0.0115967
-0.00732422	-0.00305176	-0.010376
-0.00793457	-0.00213623	-0.0100708
-0.00823975	-0.00183105	-0.0100708
-0.00762939	-0.00213623	-0.00976563
-0.00732422	-0.00213623	-0.00946045
-0.00701904	-0.0012207	-0.00823975
-0.00640869	0.000305176	-0.00610352
-0.00610352	0.0012207	-0.00488281
-0.00518799	0.000610352	-0.00457764
-0.00427246	-0.000610352	-0.00488281
-0.00366211	-0.0012207	-0.00488281
-0.00366211	-0.000610352	-0.00427246
-0.00488281	0	-0.00488281
-0.00610352	0.000610352	-0.00549316
-0.00762939	0.000610352	-0.00701904
-0.0088501	0	-0.0088501
-0.0100708	-0.0012207	-0.0112915
-0.0109863	-0.00244141	-0.0134277
-0.0112915	-0.00427246	-0.015564
-0.0115967	-0.00610352	-0.0177002
-0.0119019	-0.00793457	-0.0198364
-0.0115967	-0.00915527	-0.020752
-0.010376	-0.00976563	-0.0201416
-0.00793457	-0.0106812	-0.0186157
-0.00610352	-0.0112915	-0.017395
-0.00549316	-0.0106812	-0.0161743
-0.00518799	-0.00854492	-0.0137329
-0.00518799	-0.00610352	-0.0112915
-0.00488281	-0.00335693	-0.00823975
-0.00488281	-0.000610352	-0.00549316
-0.00488281	0.0012207	-0.00366211
-0.00488281	0.00274658	-0.00213623
-0.00518799	0.00396729	-0.0012207
-0.00610352	0.00457764	-0.00152588
-0.00671387	0.00427246	-0.00244141
-0.00610352	0.00335693	-0.00274658
-0.00488281	0.00183105	-0.00305176
-0.00366211	0.000305176	-0.00335693
-0.00244141	-0.000305176	-0.00274658
-0.00152588	-0.000915527	-0.00244141
-0.000305176	-0.0012207	-0.00152588
0.000610352	-0.0012207	-0.000610352
0.00183105	-0.00152588	0.000305176
0.00335693	-0.00183105	0.00152588
0.00488281	-0.0012207	0.00366211
0.00610352	-0.000305176	0.00579834
0.00732422	-0.000305176	0.00701904
0.00823975	-0.0012207	0.00701904
0.0088501	-0.00213623	0.00671387
0.010376	-0.00152588	0.0088501
0.0125122	0.000305176	0.0128174
0.0152588	0.00244141	0.0177002
0.0186157	0.00427246	0.0228882
0.0219727	0.00610352	0.0280762
0.0250244	0.00854492	0.0335693
0.027771	0.0109863	0.0387573
0.0308228	0.0134277	0.0442505
0.0335693	0.0158691	0.0494385
0.0360107	0.0183105	0.0543213
0.038147	0.0204468	0.0585938
0.0396729	0.0216675	0.0613403
0.0411987	0.0219727	0.0631714
0.0424194	0.0198364	0.0622559
0.043335	0.0158691	0.0592041
0.0442505	0.0109863	0.0552368
0.0445557	0.00488281	0.0494385
0.045166	-0.00274658	0.0424194
0.0454712	-0.0106812	0.03479
0.0457764	-0.0180054	0.027771
0.045166	-0.0244141	0.020752
0.0439453	-0.0296021	0.0143433
0.0411987	-0.0332642	0.00793457
0.0375366	-0.0344849	0.00305176
0.0326538	-0.0338745	-0.0012207
0.0265503	-0.0308228	-0.00427246
0.0201416	-0.0253296	-0.00518799
0.0128174	-0.0183105	-0.00549316
0.00518799	-0.00976563	-0.00457764
-0.00305176	-0.00183105	-0.00488281
-0.0112915	0.00457764	-0.00671387
-0.0189209	0.00915527	-0.00976563
-0.0256348	0.0125122	-0.0131226
-0.0308228	0.0146484	-0.0161743
-0.03479	0.0158691	-0.0189209
-0.0375366	0.0158691	-0.0216675
-0.0393677	0.0149536	-0.0244141
-0.039978	0.0149536	-0.0250244
-0.039978	0.0152588	-0.0247192
-0.0390625	0.0149536	-0.0241089
-0.0375366	0.0149536	-0.022583
-0.0357056	0.0158691	-0.0198364
-0.0341797	0.0177002	-0.0164795
-0.0326538	0.0195313	-0.0131226
-0.0317383	0.0213623	-0.010376
-0.0308228	0.0222778	-0.00854492
-0.0296021	0.022583	-0.00701904
-0.027771	0.0219727	-0.00579834
-0.0253296	0.0198364	-0.00549316
-0.0231934	0.0170898	-0.00610352
-0.0222778	0.0152588	-0.00701904
-0.022583	0.0152588	-0.00732422
-0.0238037	0.0183105	-0.00549316
-0.0259399	0.0250244	-0.000915527
-0.0299072	0.0344849	0.00457764
-0.0335693	0.0439453	0.010376
-0.0344849	0.0518799	0.017395
-0.0308228	0.0570679	0.0262451
-0.0222778	0.0588989	0.0366211
-0.00854492	0.0570679	0.0485229
0.0112915	0.050354	0.0616455
0.0369263	0.0396729	0.0765991
0.0683594	0.0241089	0.0924683
0.10437	0.00518799	0.109558
0.141602	-0.0143433	0.127258
0.177612	-0.0323486	0.145264
0.20813	-0.045166	0.162964
0.229187	-0.0479126	0.181274
0.237427	-0.0402832	0.197144
0.232239	-0.0238037	0.208435
0.213623	-0.0012207	0.212402
0.183716	0.0234985	0.207214
0.145874	0.0463867	0.192261
0.10498	0.062561	0.167542
0.0646973	0.0683594	0.133057
0.027771	0.0619507	0.0897217
-0.00366211	0.045166	0.0415039
-0.0274658	0.0204468	-0.00701904
-0.0436401	-0.0088501	-0.0524902
-0.0524902	-0.0402832	-0.0927734
-0.055542	-0.0698853	-0.125427
-0.0546265	-0.0927734	-0.1474
-0.0515747	-0.105896	-0.157471
-0.0485229	-0.107422	-0.155945
-0.0466919	-0.0979614	-0.144653
-0.0473022	-0.0799561	-0.127258
-0.0497437	-0.0564575	-0.106201
-0.0531006	-0.0311279	-0.0842285
-0.0564575	-0.00762939	-0.0640869
-0.0579834	0.010376	-0.0476074
-0.057373	0.0216675	-0.0357056
-0.0543213	0.0271606	-0.0271606
-0.0497437	0.0271606	-0.022583
-0.0442505	0.0234985	-0.020752
-0.0390625	0.0180054	-0.0210571
-0.03479	0.0128174	-0.0219727
-0.0320435	0.0088501	-0.0231934
-0.0299072	0.00640869	-0.0234985
-0.0283813	0.00488281	-0.0234985
-0.0274658	0.00335693	-0.0241089
-0.0265503	0.00366211	-0.0228882
-0.0262451	0.00518799	-0.0210571
-0.0259399	0.00671387	-0.0192261
-0.0256348	0.00701904	-0.0186157
-0.0247192	0.00671387	-0.0180054
-0.0241089	0.00640869	-0.0177002
-0.0238037	0.00671387	-0.0170898
-0.0241089	0.00762939	-0.0164795
-0.0247192	0.00762939	-0.0170898
-0.0256348	0.00701904	-0.0186157
-0.0265503	0.00671387	-0.0198364
-0.0268555	0.00732422	-0.0195313
-0.0265503	0.00793457	-0.0186157
-0.0259399	0.00732422	-0.0186157
-0.0250244	0.00671387	-0.0183105
-0.0234985	0.00701904	-0.0164795
-0.0213623	0.00732422	-0.0140381
-0.0189209	0.00701904	-0.0119019
-0.0158691	0.00610352	-0.00976563
-0.0131226	0.00457764	-0.00854492
-0.0106812	0.00244141	-0.00823975
-0.0088501	0.000610352	-0.00823975
-0.00701904	0	-0.00701904
-0.00549316	-0.000610352	-0.00610352
-0.00457764	-0.00274658	-0.00732422
-0.00366211	-0.00549316	-0.00915527
-0.00335693	-0.00762939	-0.0109863
-0.00396729	-0.00793457	-0.0119019
-0.00488281	-0.00610352	-0.0109863
-0.00579834	-0.00366211	-0.00946045
-0.00640869	-0.00183105	-0.00823975
-0.00701904	-0.000915527	-0.00793457
-0.00671387	0	-0.00671387
-0.00610352	0.000915527	-0.00518799
-0.00457764	0.00213623	-0.00244141
-0.00213623	0.00244141	0.000305176
0.000305176	0.0012207	0.00152588
0.00213623	-0.000915527	0.0012207
0.00366211	-0.00366211	0
0.00610352	-0.00701904	-0.000915527
0.00946045	-0.0106812	-0.0012207
0.0119019	-0.0134277	-0.00152588
0.012207	-0.0143433	-0.00213623
0.0109863	-0.0140381	-0.00305176
0.010376	-0.0134277	-0.00305176
0.0109863	-0.0131226	-0.00213623
0.012207	-0.0125122	-0.000305176
0.0134277	-0.0112915	0.00213623
0.0137329	-0.00976563	0.00396729
0.0143433	-0.0088501	0.00549316
0.0149536	-0.00854492	0.00640869
0.0161743	-0.00946045	0.00671387
0.0180054	-0.0109863	0.00701904
0.0192261	-0.0125122	0.00671387
0.0201416	-0.0149536	0.00518799
0.0210571	-0.0170898	0.00396729
0.0216675	-0.0186157	0.00305176
0.0222778	-0.0198364	0.00244141
0.0231934	-0.020752	0.00244141
0.0244141	-0.0219727	0.00244141
0.0259399	-0.0228882	0.00305176
0.0274658	-0.0228882	0.00457764
0.0286865	-0.0228882	0.00579834
0.0296021	-0.0231934	0.00640869
0.0305176	-0.0238037	0.00671387
0.0311279	-0.0247192	0.00640869
0.0311279	-0.0262451	0.00488281
0.0314331	-0.0274658	0.00396729
0.0320435	-0.0286865	0.00335693
0.0326538	-0.0308228	0.00183105
0.0335693	-0.0341797	-0.000610352
0.03479	-0.0369263	-0.00213623
0.0366211	-0.0390625	-0.00244141
0.0390625	-0.0415039	-0.00244141
0.0418091	-0.045166	-0.00335693
0.0448608	-0.0479126	-0.00305176
0.0476074	-0.0497437	-0.00213623
0.0506592	-0.0512695	-0.000610352
0.0543213	-0.0521851	0.00213623
0.0576782	-0.0527954	0.00488281
0.0601196	-0.0531006	0.00701904
0.0619507	-0.0527954	0.00915527
0.0628662	-0.0515747	0.0112915
0.0634766	-0.050354	0.0131226
0.0637817	-0.0497437	0.0140381
0.0643921	-0.0497437	0.0146484
0.0650024	-0.050354	0.0146484
0.0656128	-0.050354	0.0152588
0.0656128	-0.0494385	0.0161743
0.0653076	-0.0488281	0.0164795
0.0653076	-0.0491333	0.0161743
0.0653076	-0.0500488	0.0152588
0.0650024	-0.0506592	0.0143433
0.0643921	-0.0509644	0.0134277
0.0637817	-0.0497437	0.0140381
0.062561	-0.0485229	0.0140381
0.0604248	-0.0479126	0.0125122
0.0576782	-0.0485229	0.00915527
0.0549316	-0.0479126	0.00701904
0.0521851	-0.0460815	0.00610352
0.0497437	-0.0436401	0.00610352
0.0466919	-0.0405884	0.00610352
0.0436401	-0.0369263	0.00671387
0.0396729	-0.0323486	0.00732422
0.0350952	-0.0271606	0.00793457
0.0302124	-0.022583	0.00762939
0.0244141	-0.0177002	0.00671387
0.0180054	-0.0131226	0.00488281
0.0115967	-0.00946045	0.00213623
0.00549316	-0.00610352	-0.000610352
-0.000305176	-0.00335693	-0.00366211
-0.00549316	-0.00152588	-0.00701904
-0.0106812	0.000305176	-0.010376
-0.0152588	0.00183105	-0.0134277
-0.0183105	0.00305176	-0.0152588
-0.020752	0.00366211	-0.0170898
-0.0222778	0.00396729	-0.0183105
-0.0238037	0.00396729	-0.0198364
-0.0250244	0.00488281	-0.0201416
-0.0262451	0.00640869	-0.0198364
-0.0271606	0.00732422	-0.0198364
-0.0280762	0.00701904	-0.0210571
-0.0289917	0.00610352	-0.0228882
-0.0296021	0.00518799	-0.0244141
-0.0302124	0.00488281	-0.0253296
-0.0302124	0.00457764	-0.0256348
-0.0302124	0.00457764	-0.0256348
-0.0296021	0.00488281	-0.0247192
-0.0296021	0.00518799	-0.0244141
-0.0289917	0.00488281	-0.0241089
-0.0289917	0.00366211	-0.0253296
-0.0289917	0.00305176	-0.0259399
-0.0292969	0.00366211	-0.0256348
-0.0296021	0.00457764	-0.0250244
-0.0296021	0.00396729	-0.0256348
-0.0292969	0.00274658	-0.0265503
-0.0283813	0.00213623	-0.0262451
-0.027771	0.00213623	-0.0256348
-0.027771	0.00244141	-0.0253296
-0.027771	0.00244141	-0.0253296
-0.0271606	0.00152588	-0.0256348
-0.0253296	0.000915527	-0.0244141
-0.0234985	0.000915527	-0.022583
-0.0219727	0.000915527	-0.0210571
-0.0210571	0.000610352	-0.0204468
-0.0201416	-0.000305176	-0.0204468
-0.0192261	-0.000915527	-0.0201416
-0.0189209	-0.000915527	-0.0198364
-0.0186157	-0.000610352	-0.0192261
-0.0186157	-0.000305176	-0.0189209
-0.0183105	-0.000305176	-0.0186157
-0.0177002	-0.000610352	-0.0183105
-0.017395	-0.000610352	-0.0180054
-0.0167847	-0.000305176	-0.0170898
-0.0158691	0.000610352	-0.0152588
-0.0149536	0.0012207	-0.0137329
-0.0137329	0.00183105	-0.0119019
-0.0128174	0.00152588	-0.0112915
-0.012207	0.000915527	-0.0112915
-0.0115967	-0.000610352	-0.012207
-0.0106812	-0.00152588	-0.012207
-0.00976563	-0.00213623	-0.0119019
-0.0088501	-0.00274658	-0.0115967
-0.00823975	-0.00305176	-0.0112915
-0.00823975	-0.00335693	-0.0115967
-0.00854492	-0.00366211	-0.012207
-0.00823975	-0.00366211	-0.0119019
-0.00823975	-0.00274658	-0.0109863
-0.00854492	-0.00183105	-0.010376
-0.00854492	-0.00152588	-0.0100708
-0.0088501	-0.00152588	-0.010376
-0.00946045	-0.00152588	-0.0109863
-0.0106812	-0.0012207	-0.0119019
-0.0109863	0	-0.0109863
-0.0109863	0.000610352	-0.010376
-0.0106812	0.000915527	-0.00976563
-0.010376	0.00183105	-0.00854492
-0.00946045	0.00274658	-0.00671387
-0.00854492	0.00305176	-0.00549316
-0.00762939	0.00305176	-0.00457764
-0.00671387	0.00366211	-0.00305176
-0.00579834	0.00488281	-0.000915527
-0.00518799	0.00457764	-0.000610352
-0.00457764	0.00396729	-0.000610352
-0.00488281	0.00366211	-0.0012207
-0.00579834	0.00396729	-0.00183105
-0.00671387	0.00457764	-0.00213623
-0.00793457	0.00549316	-0.00244141
-0.00946045	0.00671387	-0.00274658
-0.0109863	0.00854492	-0.00244141
-0.0115967	0.0106812	-0.000915527
-0.012207	0.0128174	0.000610352
-0.0128174	0.0140381	0.0012207
-0.0137329	0.0137329	0
-0.0140381	0.0128174	-0.0012207
-0.0137329	0.0115967	-0.00213623
-0.0131226	0.00976563	-0.00335693
-0.012207	0.00732422	-0.00488281
-0.0112915	0.00488281	-0.00640869
-0.010376	0.00366211	-0.00671387
-0.010376	0.00305176	-0.00732422
-0.0109863	0.00335693	-0.00762939
-0.012207	0.00427246	-0.00793457
-0.0131226	0.00579834	-0.00732422
-0.0134277	0.00732422	-0.00610352
-0.0140381	0.0088501	-0.00518799
-0.0143433	0.0100708	-0.00427246
-0.0140381	0.0109863	-0.00305176
-0.0143433	0.0119019	-0.00244141
-0.0143433	0.0125122	-0.00183105
-0.0140381	0.0119019	-0.00213623
-0.0134277	0.010376	-0.00305176
-0.0115967	0.00823975	-0.00335693
-0.00915527	0.00610352	-0.00305176
-0.00732422	0.00518799	-0.00213623
-0.00579834	0.00518799	-0.000610352
-0.00488281	0.00579834	0.000915527
-0.00427246	0.00671387	0.00244141
-0.00366211	0.00762939	0.00396729
-0.00335693	0.00946045	0.00610352
-0.00335693	0.0109863	0.00762939
-0.00366211	0.0112915	0.00762939
-0.00396729	0.0106812	0.00671387
-0.00457764	0.0109863	0.00640869
-0.00610352	0.0112915	0.00518799
-0.00732422	0.0109863	0.00366211
-0.00854492	0.0106812	0.00213623
-0.00946045	0.00976563	0.000305176
-0.0106812	0.0088501	-0.00183105
-0.012207	0.00762939	-0.00457764
-0.0134277	0.00671387	-0.00671387
-0.0143433	0.00671387	-0.00762939
-0.0152588	0.00793457	-0.00732422
-0.0158691	0.00915527	-0.00671387
-0.015564	0.00976563	-0.00579834
-0.0146484	0.0100708	-0.00457764
-0.0128174	0.00915527	-0.00366211
-0.0109863	0.00793457	-0.00305176
-0.00823975	0.00701904	-0.0012207
-0.00488281	0.00732422	0.00244141
-0.00183105	0.00823975	0.00640869
0.000610352	0.0088501	0.00946045
0.00213623	0.00915527	0.0112915
0.00183105	0.00915527	0.0109863
0.000610352	0.00915527	0.00976563
-0.000915527	0.0088501	0.00793457
-0.00305176	0.0088501	0.00579834
-0.00549316	0.00946045	0.00396729
-0.00762939	0.00976563	0.00213623
-0.010376	0.00976563	-0.000610352
-0.0125122	0.0100708	-0.00244141
-0.0140381	0.0112915	-0.00274658
-0.0146484	0.0115967	-0.00305176
-0.0146484	0.0109863	-0.00366211
-0.0140381	0.0100708	-0.00396729
-0.0137329	0.0109863	-0.00274658
-0.0128174	0.0109863	-0.00183105
-0.012207	0.0100708	-0.00213623
-0.0119019	0.0088501	-0.00305176
-0.012207	0.0088501	-0.00335693
-0.0128174	0.0088501	-0.00396729
-0.0140381	0.00976563	-0.00427246
-0.0149536	0.0112915	-0.00366211
-0.0152588	0.012207	-0.00305176
-0.0152588	0.0131226	-0.00213623
-0.0152588	0.0149536	-0.000305176
-0.0146484	0.017395	0.00274658
-0.0137329	0.0195313	0.00579834
-0.012207	0.0201416	0.00793457
-0.0100708	0.0195313	0.00946045
-0.00762939	0.0192261	0.0115967
-0.00549316	0.0183105	0.0128174
-0.00396729	0.017395	0.0134277
-0.00274658	0.0167847	0.0140381
-0.00274658	0.0177002	0.0149536
-0.00335693	0.0186157	0.0152588
-0.00457764	0.0201416	0.015564
-0.00610352	0.0219727	0.0158691
-0.00793457	0.0234985	0.015564
-0.00976563	0.0244141	0.0146484
-0.0112915	0.0250244	0.0137329
-0.0119019	0.0256348	0.0137329
-0.0125122	0.0262451	0.0137329
-0.0131226	0.0265503	0.0134277
-0.0131226	0.0259399	0.0128174
-0.0128174	0.0256348	0.0128174
-0.0128174	0.0259399	0.0131226
-0.0131226	0.0265503	0.0134277
-0.0134277	0.0268555	0.0134277
-0.0134277	0.0271606	0.0137329
-0.0134277	0.027771	0.0143433
-0.0134277	0.0292969	0.0158691
-0.0131226	0.0311279	0.0180054
-0.0125122	0.0332642	0.020752
-0.0115967	0.03479	0.0231934
-0.010376	0.0360107	0.0256348
-0.0088501	0.0363159	0.0274658
-0.00793457	0.0366211	0.0286865
-0.00732422	0.0366211	0.0292969
-0.00701904	0.0366211	0.0296021
-0.00671387	0.0366211	0.0299072
-0.00640869	0.0366211	0.0302124
-0.00701904	0.0363159	0.0292969
-0.00823975	0.0360107	0.027771
-0.00915527	0.0360107	0.0268555
-0.00976563	0.0363159	0.0265503
-0.00976563	0.0366211	0.0268555
-0.00946045	0.0375366	0.0280762
-0.00915527	0.0387573	0.0296021
-0.0088501	0.0402832	0.0314331
-0.00793457	0.0418091	0.0338745
-0.00640869	0.0424194	0.0360107
-0.00549316	0.0424194	0.0369263
-0.00610352	0.043335	0.0372314
-0.00823975	0.0445557	0.0363159
-0.0112915	0.0457764	0.0344849
-0.0140381	0.0457764	0.0317383
-0.0161743	0.0460815	0.0299072
-0.0183105	0.0469971	0.0286865
-0.0198364	0.0476074	0.027771
-0.0210571	0.0473022	0.0262451
-0.0216675	0.045166	0.0234985
-0.0210571	0.043335	0.0222778
-0.0192261	0.0427246	0.0234985
-0.0164795	0.0421143	0.0256348
-0.0128174	0.0408936	0.0280762
-0.00854492	0.0387573	0.0302124
-0.00427246	0.0369263	0.0326538
-0.000305176	0.0363159	0.0360107
0.00305176	0.0366211	0.0396729
0.00579834	0.0363159	0.0421143
0.00854492	0.0357056	0.0442505
0.0119019	0.0350952	0.0469971
0.0152588	0.0350952	0.050354
0.0189209	0.03479	0.0537109
0.0222778	0.032959	0.0552368
0.0247192	0.0308228	0.055542
0.0268555	0.0289917	0.0558472
0.0283813	0.0271606	0.055542
0.0308228	0.0253296	0.0561523
0.032959	0.0231934	0.0561523
0.03479	0.0219727	0.0567627
0.0360107	0.0216675	0.0576782
0.0375366	0.0216675	0.0592041
0.0384521	0.0216675	0.0601196
0.0393677	0.0216675	0.0610352
0.039978	0.0219727	0.0619507
0.0408936	0.022583	0.0634766
0.0415039	0.0228882	0.0643921
0.0427246	0.0210571	0.0637817
0.0445557	0.0167847	0.0613403
0.0460815	0.00976563	0.0558472
0.0469971	0.000915527	0.0479126
0.0476074	-0.00823975	0.0393677
0.0479126	-0.0167847	0.0311279
0.0485229	-0.0259399	0.022583
0.0485229	-0.0344849	0.0140381
0.0473022	-0.0411987	0.00610352
0.0436401	-0.0448608	-0.0012207
0.0375366	-0.045166	-0.00762939
0.0302124	-0.0418091	-0.0115967
0.0219727	-0.0363159	-0.0143433
0.0137329	-0.0292969	-0.015564
0.00579834	-0.0210571	-0.0152588
-0.00213623	-0.0134277	-0.015564
-0.0100708	-0.00732422	-0.017395
-0.0167847	-0.00244141	-0.0192261
-0.0222778	0.000915527	-0.0213623
-0.0265503	0.00274658	-0.0238037
-0.0302124	0.00274658	-0.0274658
-0.032959	0.00152588	-0.0314331
-0.0350952	-0.000305176	-0.0354004
-0.0369263	-0.00152588	-0.0384521
-0.0387573	-0.00183105	-0.0405884
-0.0396729	-0.00152588	-0.0411987
-0.0393677	-0.0012207	-0.0405884
-0.0378418	-0.000915527	-0.0387573
-0.0360107	-0.000915527	-0.0369263
-0.0341797	-0.000305176	-0.0344849
-0.0314331	-0.000305176	-0.0317383
-0.0271606	-0.000915527	-0.0280762
-0.0222778	-0.00152588	-0.0238037
-0.0180054	-0.0012207	-0.0192261
-0.0149536	-0.000610352	-0.015564
-0.0128174	-0.000305176	-0.0131226
-0.0119019	0.000915527	-0.0109863
-0.0128174	0.00396729	-0.0088501
-0.0158691	0.00946045	-0.00640869
-0.020752	0.0177002	-0.00305176
-0.0268555	0.0283813	0.00152588
-0.032959	0.0396729	0.00671387
-0.0375366	0.0488281	0.0112915
-0.0384521	0.0552368	0.0167847
-0.0341797	0.0585938	0.0244141
-0.0238037	0.0588989	0.0350952
-0.00640869	0.0540161	0.0476074
0.017395	0.0430298	0.0604248
0.0479126	0.0259399	0.0738525
0.0830078	0.00488281	0.0878906
0.120544	-0.017395	0.103149
0.157471	-0.0384521	0.119019
0.19043	-0.0558472	0.134583
0.21637	-0.0656128	0.150757
0.231323	-0.0650024	0.166321
0.233154	-0.0543213	0.178833
0.221558	-0.0341797	0.187378
0.196533	-0.00671387	0.189819
0.161133	0.0244141	0.185547
0.120544	0.0521851	0.172729
0.0790405	0.0723267	0.151367
0.0396729	0.0805664	0.120239
0.00427246	0.0762939	0.0805664
-0.0250244	0.0613403	0.0363159
-0.0463867	0.0378418	-0.00854492
-0.0588989	0.00854492	-0.050354
-0.0637817	-0.022583	-0.0863647
-0.0640869	-0.0512695	-0.115356
-0.0613403	-0.0735474	-0.134888
-0.0570679	-0.0863647	-0.143433
-0.0537109	-0.0878906	-0.141602
-0.0518799	-0.0796509	-0.131531
-0.0518799	-0.0631714	-0.115051
-0.0543213	-0.0411987	-0.09552
-0.0579834	-0.0180054	-0.0759888
-0.0613403	0.00305176	-0.0582886
-0.0628662	0.0186157	-0.0442505
-0.0622559	0.0274658	-0.03479
-0.0598145	0.0292969	-0.0305176
-0.0558472	0.0262451	-0.0296021
-0.050354	0.0213623	-0.0289917
-0.0448608	0.0158691	-0.0289917
-0.0396729	0.0109863	-0.0286865
-0.0366211	0.00732422	-0.0292969
-0.03479	0.00518799	-0.0296021
-0.0338745	0.00427246	-0.0296021
-0.0338745	0.00488281	-0.0289917
-0.0338745	0.00640869	-0.0274658
-0.0332642	0.0088501	-0.0244141
-0.0317383	0.0106812	-0.0210571
-0.0302124	0.0128174	-0.017395
-0.0280762	0.0149536	-0.0131226
-0.0262451	0.0164795	-0.00976563
-0.0234985	0.0167847	-0.00671387
-0.0204468	0.0158691	-0.00457764
-0.0177002	0.0152588	-0.00244141
-0.0152588	0.0146484	-0.000610352
-0.0128174	0.0143433	0.00152588
-0.0109863	0.0134277	0.00244141
-0.0106812	0.0131226	0.00244141
-0.0115967	0.0128174	0.0012207
-0.0134277	0.0109863	-0.00244141
-0.0149536	0.00823975	-0.00671387
-0.0158691	0.00518799	-0.0106812
-0.0161743	0.00274658	-0.0134277
-0.0161743	0.00152588	-0.0146484
-0.0152588	0.000915527	-0.0143433
-0.0143433	0.000305176	-0.0140381
-0.0131226	-0.000610352	-0.0137329
-0.0115967	-0.00152588	-0.0131226
-0.010376	-0.00152588	-0.0119019
-0.0088501	-0.00183105	-0.0106812
-0.00701904	-0.0012207	-0.00823975
-0.00549316	0.000305176	-0.00518799
-0.00488281	0.00183105	-0.00305176
-0.00488281	0.00335693	-0.00152588
-0.00549316	0.00396729	-0.00152588
-0.00610352	0.00366211	-0.00244141
-0.00701904	0.00213623	-0.00488281
-0.00762939	0.00152588	-0.00610352
-0.00854492	0.00183105	-0.00671387
-0.0088501	0.00305176	-0.00579834
-0.00854492	0.00366211	-0.00488281
-0.00732422	0.00366211	-0.00366211
-0.00518799	0.00274658	-0.00244141
-0.00244141	0.00183105	-0.000610352
0.000305176	0.0012207	0.00152588
0.00213623	0.000610352	0.00274658
0.00396729	-0.000610352	0.00335693
0.00579834	-0.00152588	0.00427246
0.00793457	-0.00213623	0.00579834
0.00976563	-0.00244141	0.00732422
0.0109863	-0.00335693	0.00762939
0.0112915	-0.00488281	0.00640869
0.0112915	-0.00549316	0.00579834
0.0112915	-0.00488281	0.00640869
0.0119019	-0.00366211	0.00823975
0.0131226	-0.00244141	0.0106812
0.0143433	-0.00213623	0.012207
0.0161743	-0.00305176	0.0131226
0.0180054	-0.00457764	0.0134277
0.0195313	-0.00518799	0.0143433
0.0204468	-0.00579834	0.0146484
0.0210571	-0.00701904	0.0140381
0.0213623	-0.00946045	0.0119019
0.0216675	-0.012207	0.00946045
0.0219727	-0.0140381	0.00793457
0.022583	-0.0158691	0.00671387
0.0238037	-0.0180054	0.00579834
0.0250244	-0.0198364	0.00518799
0.0262451	-0.0201416	0.00610352
0.0280762	-0.0201416	0.00793457
0.0302124	-0.0198364	0.010376
0.0320435	-0.0198364	0.012207
0.0338745	-0.020752	0.0131226
0.0363159	-0.0213623	0.0149536
0.0387573	-0.0219727	0.0167847
0.0411987	-0.0228882	0.0183105
0.0436401	-0.0244141	0.0192261
0.0457764	-0.0265503	0.0192261
0.0482178	-0.0289917	0.0192261
0.0509644	-0.0323486	0.0186157
0.0537109	-0.0357056	0.0180054
0.0558472	-0.0378418	0.0180054
0.057373	-0.0387573	0.0186157
0.0582886	-0.039978	0.0183105
0.0588989	-0.0411987	0.0177002
0.0592041	-0.0430298	0.0161743
0.0588989	-0.0445557	0.0143433
0.0576782	-0.0448608	0.0128174
0.0561523	-0.0457764	0.010376
0.0552368	-0.0473022	0.00793457
0.0552368	-0.0482178	0.00701904
0.0561523	-0.0485229	0.00762939
0.0576782	-0.0491333	0.00854492
0.0595093	-0.050354	0.00915527
0.0616455	-0.0512695	0.010376
0.0631714	-0.0518799	0.0112915
0.0650024	-0.0509644	0.0140381
0.0665283	-0.0497437	0.0167847
0.0674438	-0.0485229	0.0189209
0.0674438	-0.0469971	0.0204468
0.065918	-0.0448608	0.0210571
0.0634766	-0.0421143	0.0213623
0.0604248	-0.0393677	0.0210571
0.0564575	-0.0363159	0.0201416
0.0512695	-0.0326538	0.0186157
0.0457764	-0.0289917	0.0167847
0.0405884	-0.0250244	0.015564
0.0354004	-0.0210571	0.0143433
0.0299072	-0.0170898	0.0128174
0.0241089	-0.0128174	0.0112915
0.0183105	-0.00854492	0.00976563
0.0131226	-0.00427246	0.0088501
0.00854492	-0.000610352	0.00793457
0.00396729	0.00335693	0.00732422
0	0.00640869	0.00640869
-0.00396729	0.0088501	0.00488281
-0.00732422	0.010376	0.00305176
-0.0100708	0.0112915	0.0012207
-0.0125122	0.0125122	0
-0.0158691	0.0137329	-0.00213623
-0.0195313	0.0149536	-0.00457764
-0.0228882	0.0161743	-0.00671387
-0.0259399	0.017395	-0.00854492
-0.0283813	0.0180054	-0.010376
-0.0305176	0.0183105	-0.012207
-0.0326538	0.0195313	-0.0131226
-0.0354004	0.0216675	-0.0137329
-0.0375366	0.0231934	-0.0143433
-0.0384521	0.0238037	-0.0146484
-0.0387573	0.0231934	-0.015564
-0.0384521	0.0219727	-0.0164795
-0.0378418	0.020752	-0.0170898
-0.0369263	0.0204468	-0.0164795
-0.0366211	0.0201416	-0.0164795
-0.0366211	0.0204468	-0.0161743
-0.0360107	0.0204468	-0.015564
-0.03479	0.0201416	-0.0146484
-0.032959	0.0201416	-0.0128174
-0.0317383	0.0204468	-0.0112915
-0.0302124	0.0210571	-0.00915527
-0.0283813	0.0210571	-0.00732422
-0.0271606	0.0204468	-0.00671387
-0.0262451	0.0192261	-0.00701904
-0.0259399	0.017395	-0.00854492
-0.0250244	0.0152588	-0.00976563
-0.0241089	0.0134277	-0.0106812
-0.0234985	0.0125122	-0.0109863
-0.022583	0.0125122	-0.0100708
-0.0213623	0.012207	-0.00915527
-0.0198364	0.0112915	-0.00854492
-0.0180054	0.00946045	-0.00854492
-0.0161743	0.00762939	-0.00854492
-0.0140381	0.00579834	-0.00823975
-0.012207	0.00396729	-0.00823975
-0.0106812	0.00213623	-0.00854492
-0.010376	0	-0.010376
-0.0106812	-0.00183105	-0.0125122
-0.0119019	-0.00305176	-0.0149536
-0.0134277	-0.00305176	-0.0164795
-0.0146484	-0.00274658	-0.017395
-0.0152588	-0.00244141	-0.0177002
-0.0161743	-0.00183105	-0.0180054
-0.0164795	0	-0.0164795
-0.0164795	0.00152588	-0.0149536
-0.0152588	0.0012207	-0.0140381
-0.0137329	-0.000305176	-0.0140381
-0.0112915	-0.00183105	-0.0131226
-0.00915527	-0.00183105	-0.0109863
-0.00793457	-0.00152588	-0.00946045
-0.00671387	-0.0012207	-0.00793457
-0.00579834	-0.0012207	-0.00701904
-0.00518799	-0.0012207	-0.00640869
-0.00579834	-0.000610352	-0.00640869
-0.00732422	0.000915527	-0.00640869
-0.0088501	0.00213623	-0.00671387
-0.00976563	0.00274658	-0.00701904
-0.0106812	0.00274658	-0.00793457
-0.012207	0.00183105	-0.010376
-0.0137329	0.000305176	-0.0134277
-0.0149536	-0.00213623	-0.0170898
-0.015564	-0.00488281	-0.0204468
-0.0158691	-0.00701904	-0.0228882
-0.015564	-0.00762939	-0.0231934
-0.0146484	-0.00732422	-0.0219727
-0.0131226	-0.00671387	-0.0198364
-0.0119019	-0.00549316	-0.017395
-0.0106812	-0.00457764	-0.0152588
-0.00946045	-0.00427246	-0.0137329
-0.00762939	-0.00457764	-0.012207
-0.00579834	-0.00549316	-0.0112915
-0.00427246	-0.00549316	-0.00976563
-0.00305176	-0.00488281	-0.00793457
-0.00274658	-0.00457764	-0.00732422
-0.00335693	-0.00488281	-0.00823975
-0.00457764	-0.00579834	-0.010376
-0.00549316	-0.00823975	-0.0137329
-0.00610352	-0.0100708	-0.0161743
-0.00640869	-0.0106812	-0.0170898
-0.00671387	-0.0100708	-0.0167847
-0.00732422	-0.00854492	-0.0158691
-0.00793457	-0.00701904	-0.0149536
-0.00854492	-0.00518799	-0.0137329
-0.00823975	-0.00427246	-0.0125122
-0.00732422	-0.00457764	-0.0119019
-0.00549316	-0.00488281	-0.010376
-0.00366211	-0.00488281	-0.00854492
-0.00213623	-0.00518799	-0.00732422
-0.000915527	-0.00640869	-0.00732422
0	-0.00732422	-0.00732422
0.000915527	-0.00854492	-0.00762939
0.00152588	-0.00915527	-0.00762939
0.00213623	-0.00976563	-0.00762939
0.00274658	-0.010376	-0.00762939
0.00305176	-0.0112915	-0.00823975
0.00305176	-0.012207	-0.00915527
0.00274658	-0.0134277	-0.0106812
0.00213623	-0.0134277	-0.0112915
0.00152588	-0.0131226	-0.0115967
0.000915527	-0.0125122	-0.0115967
0	-0.0115967	-0.0115967
-0.000610352	-0.0115967	-0.012207
-0.00152588	-0.0112915	-0.0128174
-0.00244141	-0.0106812	-0.0131226
-0.00396729	-0.010376	-0.0143433
-0.00518799	-0.00976563	-0.0149536
-0.00640869	-0.00946045	-0.0158691
-0.00762939	-0.00915527	-0.0167847
-0.00854492	-0.0100708	-0.0186157
-0.00915527	-0.0119019	-0.0210571
-0.00976563	-0.0149536	-0.0247192
-0.00976563	-0.0170898	-0.0268555
-0.0088501	-0.0183105	-0.0271606
-0.00732422	-0.0195313	-0.0268555
-0.00579834	-0.0210571	-0.0268555
-0.00549316	-0.0213623	-0.0268555
-0.00549316	-0.0201416	-0.0256348
-0.00549316	-0.0186157	-0.0241089
-0.00488281	-0.0170898	-0.0219727
-0.00427246	-0.0158691	-0.0201416
-0.00427246	-0.0146484	-0.0189209
-0.00457764	-0.0131226	-0.0177002
-0.00488281	-0.0125122	-0.017395
-0.00457764	-0.0131226	-0.0177002
-0.00427246	-0.0140381	-0.0183105
-0.00396729	-0.0146484	-0.0186157
-0.00305176	-0.015564	-0.0186157
-0.00183105	-0.017395	-0.0192261
-0.000915527	-0.0189209	-0.0198364
-0.000305176	-0.0201416	-0.0204468
-0.000305176	-0.020752	-0.0210571
-0.000915527	-0.0210571	-0.0219727
-0.000915527	-0.0216675	-0.022583
-0.000915527	-0.022583	-0.0234985
-0.000915527	-0.0231934	-0.0241089
-0.0012207	-0.0241089	-0.0253296
-0.0012207	-0.0247192	-0.0259399
-0.0012207	-0.0253296	-0.0265503
-0.0012207	-0.0250244	-0.0262451
-0.000610352	-0.0238037	-0.0244141
0.000305176	-0.0216675	-0.0213623
0.0012207	-0.0198364	-0.0186157
0.00183105	-0.0192261	-0.017395
0.00183105	-0.0189209	-0.0170898
0.0012207	-0.0180054	-0.0167847
0.000305176	-0.0170898	-0.0167847
-0.000610352	-0.0158691	-0.0164795
-0.00152588	-0.0158691	-0.017395
-0.00244141	-0.0164795	-0.0189209
-0.00366211	-0.017395	-0.0210571
-0.00457764	-0.0180054	-0.022583
-0.00518799	-0.0186157	-0.0238037
-0.00518799	-0.0198364	-0.0250244
-0.00427246	-0.0213623	-0.0256348
-0.00305176	-0.0216675	-0.0247192
-0.00244141	-0.0198364	-0.0222778
-0.00152588	-0.0167847	-0.0183105
-0.000610352	-0.0140381	-0.0146484
0.000610352	-0.012207	-0.0115967
0.00183105	-0.0119019	-0.0100708
0.00183105	-0.0125122	-0.0106812
0.0012207	-0.0137329	-0.0125122
0.000610352	-0.0143433	-0.0137329
-0.000305176	-0.0149536	-0.0152588
-0.0012207	-0.0149536	-0.0161743
-0.00152588	-0.0149536	-0.0164795
-0.00183105	-0.0152588	-0.0170898
-0.00244141	-0.015564	-0.0180054
-0.00305176	-0.0152588	-0.0183105
-0.00335693	-0.0140381	-0.017395
-0.00366211	-0.0125122	-0.0161743
-0.00427246	-0.0106812	-0.0149536
-0.00488281	-0.00915527	-0.0140381
-0.00488281	-0.00793457	-0.0128174
-0.00457764	-0.00793457	-0.0125122
-0.00427246	-0.00915527	-0.0134277
-0.00396729	-0.0115967	-0.015564
-0.00396729	-0.0140381	-0.0180054
-0.00335693	-0.0161743	-0.0195313
-0.00244141	-0.0170898	-0.0195313
-0.00183105	-0.0177002	-0.0195313
-0.000915527	-0.0177002	-0.0186157
-0.000305176	-0.0177002	-0.0180054
0.000305176	-0.0177002	-0.017395
0	-0.0170898	-0.0170898
-0.000305176	-0.015564	-0.0158691
-0.0012207	-0.0140381	-0.0152588
-0.00213623	-0.0125122	-0.0146484
-0.00335693	-0.0119019	-0.0152588
-0.00457764	-0.0106812	-0.0152588
-0.00549316	-0.00976563	-0.0152588
-0.00610352	-0.00946045	-0.015564
-0.00579834	-0.00976563	-0.015564
-0.00579834	-0.010376	-0.0161743
-0.00610352	-0.0100708	-0.0161743
-0.00640869	-0.00915527	-0.015564
-0.00579834	-0.00823975	-0.0140381
-0.00427246	-0.00793457	-0.012207
-0.00244141	-0.00762939	-0.0100708
-0.000610352	-0.00732422	-0.00793457
0.000305176	-0.00732422	-0.00701904
0.00152588	-0.00762939	-0.00610352
0.00274658	-0.00762939	-0.00488281
0.00427246	-0.00701904	-0.00274658
0.00579834	-0.00610352	-0.000305176
0.00701904	-0.00640869	0.000610352
0.00793457	-0.00671387	0.0012207
0.0088501	-0.00640869	0.00244141
0.010376	-0.00610352	0.00427246
0.0125122	-0.00671387	0.00579834
0.0146484	-0.00854492	0.00610352
0.0170898	-0.00854492	0.00854492
0.0192261	-0.00793457	0.0112915
0.0213623	-0.00701904	0.0143433
0.0231934	-0.00640869	0.0167847
0.0256348	-0.00610352	0.0195313
0.0280762	-0.00518799	0.0228882
0.0305176	-0.00427246	0.0262451
0.0320435	-0.00244141	0.0296021
0.0338745	0	0.0338745
0.0357056	0.00213623	0.0378418
0.0378418	0.00305176	0.0408936
0.0396729	0.00274658	0.0424194
0.0415039	0.00152588	0.0430298
0.0439453	-0.000610352	0.043335
0.0469971	-0.00305176	0.0439453
0.0494385	-0.00671387	0.0427246
0.0515747	-0.0128174	0.0387573
0.0531006	-0.020752	0.0323486
0.0540161	-0.0289917	0.0250244
0.0540161	-0.0366211	0.017395
0.0531006	-0.0436401	0.00946045
0.0509644	-0.0494385	0.00152588
0.0479126	-0.0534058	-0.00549316
0.0427246	-0.0546265	-0.0119019
0.0360107	-0.0524902	-0.0164795
0.027771	-0.0482178	-0.0204468
0.0192261	-0.0436401	-0.0244141
0.0100708	-0.038147	-0.0280762
0.000305176	-0.0317383	-0.0314331
-0.00915527	-0.0253296	-0.0344849
-0.017395	-0.0195313	-0.0369263
-0.0247192	-0.0140381	-0.0387573
-0.0305176	-0.00976563	-0.0402832
-0.03479	-0.00823975	-0.0430298
-0.0378418	-0.00854492	-0.0463867
-0.0396729	-0.00946045	-0.0491333
-0.039978	-0.010376	-0.050354
-0.0387573	-0.010376	-0.0491333
-0.0366211	-0.0100708	-0.0466919
-0.0338745	-0.0100708	-0.0439453
-0.0311279	-0.00976563	-0.0408936
-0.0289917	-0.00946045	-0.0384521
-0.0271606	-0.0100708	-0.0372314
-0.0256348	-0.0109863	-0.0366211
-0.0234985	-0.0112915	-0.03479
-0.0216675	-0.0115967	-0.0332642
-0.0198364	-0.0125122	-0.0323486
-0.0180054	-0.0143433	-0.0323486
-0.0164795	-0.0167847	-0.0332642
-0.0161743	-0.0180054	-0.0341797
-0.017395	-0.0167847	-0.0341797
-0.0192261	-0.0137329	-0.032959
-0.0213623	-0.00823975	-0.0296021
-0.0241089	-0.000305176	-0.0244141
-0.0274658	0.00976563	-0.0177002
-0.0305176	0.0195313	-0.0109863
-0.0311279	0.0280762	-0.00305176
-0.0274658	0.0335693	0.00610352
-0.0186157	0.0354004	0.0167847
-0.00457764	0.032959	0.0283813
0.0152588	0.0241089	0.0393677
0.0408936	0.00854492	0.0494385
0.0723267	-0.0140381	0.0582886
0.108948	-0.0408936	0.0680542
0.14679	-0.0671387	0.0796509
0.182495	-0.0900269	0.0924683
0.212708	-0.105286	0.107422
0.233154	-0.108948	0.124207
0.240173	-0.0985718	0.141602
0.233154	-0.0744629	0.158691
0.212097	-0.0384521	0.173645
0.178528	0.00549316	0.184021
0.135498	0.0506592	0.186157
0.0881958	0.090332	0.178528
0.039978	0.119629	0.159607
-0.00610352	0.136108	0.130005
-0.0460815	0.137939	0.0918579
-0.0778198	0.124512	0.0466919
-0.0985718	0.0961304	-0.00244141
-0.108948	0.0567627	-0.0521851
-0.110168	0.0134277	-0.0967407
-0.104675	-0.0289917	-0.133667
-0.09552	-0.0653076	-0.160828
-0.0842285	-0.0918579	-0.176086
-0.0732422	-0.106812	-0.180054
-0.0643921	-0.109863	-0.174255
-0.0570679	-0.103455	-0.160522
-0.0518799	-0.0912476	-0.143127
-0.0482178	-0.0772095	-0.125427
-0.0445557	-0.0637817	-0.108337
-0.0408936	-0.0506592	-0.0915527
-0.0378418	-0.0396729	-0.0775146
-0.03479	-0.0320435	-0.0668335
-0.0317383	-0.0283813	-0.0601196
-0.0286865	-0.027771	-0.0564575
-0.0262451	-0.0262451	-0.0524902
-0.0250244	-0.0241089	-0.0491333
-0.0244141	-0.0213623	-0.0457764
-0.0238037	-0.0183105	-0.0421143
-0.0228882	-0.0158691	-0.0387573
-0.0222778	-0.0140381	-0.0363159
-0.0216675	-0.012207	-0.0338745
-0.0213623	-0.00976563	-0.0311279
-0.0204468	-0.00823975	-0.0286865
-0.0189209	-0.00732422	-0.0262451
-0.0164795	-0.00732422	-0.0238037
-0.0149536	-0.00823975	-0.0231934
-0.0143433	-0.00793457	-0.0222778
-0.0146484	-0.00671387	-0.0213623
-0.0152588	-0.00549316	-0.020752
-0.015564	-0.00518799	-0.020752
-0.0158691	-0.00640869	-0.0222778
-0.0161743	-0.00823975	-0.0244141
-0.0158691	-0.010376	-0.0262451
-0.0149536	-0.0128174	-0.027771
-0.0143433	-0.0149536	-0.0292969
-0.0140381	-0.017395	-0.0314331
-0.0134277	-0.0198364	-0.0332642
-0.0125122	-0.0216675	-0.0341797
-0.0115967	-0.0228882	-0.0344849
-0.0106812	-0.0219727	-0.0326538
-0.00976563	-0.0201416	-0.0299072
-0.00976563	-0.0180054	-0.027771
-0.00976563	-0.0164795	-0.0262451
-0.00915527	-0.015564	-0.0247192
-0.00823975	-0.0152588	-0.0234985
-0.00762939	-0.0149536	-0.022583
-0.00671387	-0.0149536	-0.0216675
-0.00518799	-0.0152588	-0.0204468
-0.00274658	-0.0161743	-0.0189209
-0.000305176	-0.017395	-0.0177002
0.00152588	-0.0186157	-0.0170898
0.00274658	-0.0201416	-0.017395
0.00396729	-0.0216675	-0.0177002
0.00488281	-0.0222778	-0.017395
0.00518799	-0.0222778	-0.0170898
0.00488281	-0.0219727	-0.0170898
0.00457764	-0.0216675	-0.0170898
0.00427246	-0.0216675	-0.017395
0.00396729	-0.0213623	-0.017395
0.00427246	-0.020752	-0.0164795
0.00488281	-0.0204468	-0.015564
0.00579834	-0.020752	-0.0149536
0.00732422	-0.020752	-0.0134277
0.0088501	-0.0216675	-0.0128174
0.0106812	-0.0222778	-0.0115967
0.0119019	-0.022583	-0.0106812
0.0134277	-0.0222778	-0.0088501
0.0146484	-0.022583	-0.00793457
0.0152588	-0.0234985	-0.00823975
0.0161743	-0.0250244	-0.0088501
0.0164795	-0.0256348	-0.00915527
0.0170898	-0.0256348	-0.00854492
0.0177002	-0.0250244	-0.00732422
0.0186157	-0.0256348	-0.00701904
0.0192261	-0.0265503	-0.00732422
0.0201416	-0.0274658	-0.00732422
0.020752	-0.0289917	-0.00823975
0.0213623	-0.0305176	-0.00915527
0.0222778	-0.0305176	-0.00823975
0.0238037	-0.0311279	-0.00732422
0.0265503	-0.0320435	-0.00549316
0.0289917	-0.032959	-0.00396729
0.0314331	-0.0338745	-0.00244141
0.0338745	-0.0350952	-0.0012207
0.0366211	-0.0369263	-0.000305176
0.0393677	-0.0384521	0.000915527
0.0421143	-0.0396729	0.00244141
0.0445557	-0.0411987	0.00335693
0.0463867	-0.0436401	0.00274658
0.0476074	-0.0469971	0.000610352
0.0488281	-0.0506592	-0.00183105
0.0500488	-0.0546265	-0.00457764
0.0509644	-0.0579834	-0.00701904
0.0515747	-0.06073	-0.00915527
0.0527954	-0.0634766	-0.0106812
0.0543213	-0.065918	-0.0115967
0.0564575	-0.0674438	-0.0109863
0.0585938	-0.0686646	-0.0100708
0.0604248	-0.0695801	-0.00915527
0.062561	-0.0698853	-0.00732422
0.0643921	-0.0701904	-0.00579834
0.065918	-0.0701904	-0.00427246
0.0674438	-0.0701904	-0.00274658
0.0686646	-0.0704956	-0.00183105
0.0701904	-0.0704956	-0.000305176
0.0714111	-0.071106	0.000305176
0.0726318	-0.0717163	0.000915527
0.0732422	-0.0726318	0.000610352
0.0738525	-0.0732422	0.000610352
0.0741577	-0.0735474	0.000610352
0.0741577	-0.0732422	0.000915527
0.0741577	-0.072937	0.0012207
0.0732422	-0.0720215	0.0012207
0.0717163	-0.0704956	0.0012207
0.0689697	-0.0689697	0
0.0650024	-0.0668335	-0.00183105
0.06073	-0.0646973	-0.00396729
0.0564575	-0.0619507	-0.00549316
0.0521851	-0.0592041	-0.00701904
0.0479126	-0.0564575	-0.00854492
0.043335	-0.0531006	-0.00976563
0.0375366	-0.0488281	-0.0112915
0.0314331	-0.0436401	-0.012207
0.0253296	-0.0387573	-0.0134277
0.0201416	-0.0338745	-0.0137329
0.015564	-0.0292969	-0.0137329
0.0115967	-0.0244141	-0.0128174
0.00793457	-0.0198364	-0.0119019
0.00427246	-0.0152588	-0.0109863
0.000610352	-0.0112915	-0.0106812
-0.00244141	-0.00854492	-0.0109863
-0.00488281	-0.00732422	-0.012207
-0.00671387	-0.00671387	-0.0134277
-0.00854492	-0.00518799	-0.0137329
-0.0109863	-0.00457764	-0.015564
-0.0134277	-0.00335693	-0.0167847
-0.0161743	-0.0012207	-0.017395
-0.0195313	0.0012207	-0.0183105
-0.0234985	0.00396729	-0.0195313
-0.0271606	0.00732422	-0.0198364
-0.0299072	0.0115967	-0.0183105
-0.0320435	0.0164795	-0.015564
-0.0338745	0.0210571	-0.0128174
-0.0357056	0.0241089	-0.0115967
-0.0372314	0.0259399	-0.0112915
-0.0378418	0.0271606	-0.0106812
-0.0372314	0.0256348	-0.0115967
-0.0354004	0.0210571	-0.0143433
-0.0335693	0.0170898	-0.0164795
-0.0320435	0.0140381	-0.0180054
-0.0311279	0.0109863	-0.0201416
-0.0308228	0.00671387	-0.0241089
-0.0305176	0.00274658	-0.027771
-0.0299072	0	-0.0299072
-0.0292969	-0.00183105	-0.0311279
-0.0289917	-0.00274658	-0.0317383
-0.0286865	-0.00305176	-0.0317383
-0.0286865	-0.00274658	-0.0314331
-0.0286865	-0.00183105	-0.0305176
-0.0286865	-0.0012207	-0.0299072
-0.0280762	-0.000915527	-0.0289917
-0.0274658	-0.00152588	-0.0289917
-0.0262451	-0.00274658	-0.0289917
-0.0250244	-0.00366211	-0.0286865
-0.0241089	-0.00427246	-0.0283813
-0.0231934	-0.00427246	-0.0274658
-0.022583	-0.00457764	-0.0271606
-0.0219727	-0.00488281	-0.0268555
-0.0216675	-0.00457764	-0.0262451
-0.0222778	-0.00427246	-0.0265503
-0.0231934	-0.00366211	-0.0268555
-0.0238037	-0.00335693	-0.0271606
-0.0241089	-0.00335693	-0.0274658
-0.0244141	-0.00244141	-0.0268555
-0.0244141	-0.00152588	-0.0259399
-0.0244141	-0.000610352	-0.0250244
-0.0247192	0	-0.0247192
-0.0244141	0.000610352	-0.0238037
-0.0231934	0.000610352	-0.022583
-0.0213623	0.000610352	-0.020752
-0.0195313	0.0012207	-0.0183105
-0.0177002	0.00213623	-0.015564
-0.015564	0.00183105	-0.0137329
-0.0137329	0.00183105	-0.0119019
-0.0125122	0.00213623	-0.010376
-0.0115967	0.00213623	-0.00946045
-0.0119019	0.00274658	-0.00915527
-0.0128174	0.00396729	-0.0088501
-0.0140381	0.00579834	-0.00823975
-0.0146484	0.00762939	-0.00701904
-0.015564	0.0088501	-0.00671387
-0.0164795	0.0088501	-0.00762939
-0.0177002	0.00854492	-0.00915527
-0.0186157	0.00701904	-0.0115967
-0.0192261	0.00518799	-0.0140381
-0.0192261	0.00427246	-0.0149536
-0.0180054	0.00457764	-0.0134277
-0.0161743	0.00579834	-0.010376
-0.0137329	0.00793457	-0.00579834
-0.0119019	0.00976563	-0.00213623
-0.010376	0.0119019	0.00152588
-0.0100708	0.0146484	0.00457764
-0.00976563	0.017395	0.00762939
-0.00915527	0.0204468	0.0112915
-0.00915527	0.0228882	0.0137329
-0.00976563	0.0238037	0.0140381
-0.0109863	0.0231934	0.012207
-0.0128174	0.0210571	0.00823975
-0.0146484	0.0186157	0.00396729
-0.0164795	0.017395	0.000915527
-0.017395	0.0164795	-0.000915527
-0.0170898	0.0149536	-0.00213623
-0.0158691	0.0143433	-0.00152588
-0.0149536	0.0149536	0
-0.0143433	0.015564	0.0012207
-0.0137329	0.0149536	0.0012207
-0.0137329	0.0140381	0.000305176
-0.0137329	0.0131226	-0.000610352
-0.0134277	0.0115967	-0.00183105
-0.0134277	0.0100708	-0.00335693
-0.0131226	0.00793457	-0.00518799
-0.0134277	0.00579834	-0.00762939
-0.0140381	0.00427246	-0.00976563
-0.0143433	0.00335693	-0.0109863
-0.0140381	0.00274658	-0.0112915
-0.0131226	0.00274658	-0.010376
-0.0119019	0.00366211	-0.00823975
-0.0109863	0.00457764	-0.00640869
-0.0100708	0.00518799	-0.00488281
-0.00976563	0.00518799	-0.00457764
-0.00976563	0.00488281	-0.00488281
-0.010376	0.00427246	-0.00610352
-0.0106812	0.00335693	-0.00732422
-0.0112915	0.00305176	-0.00823975
-0.0115967	0.00305176	-0.00854492
-0.012207	0.00335693	-0.0088501
-0.012207	0.00396729	-0.00823975
-0.0119019	0.00457764	-0.00732422
-0.0115967	0.00549316	-0.00610352
-0.0109863	0.00579834	-0.00518799
-0.00976563	0.00579834	-0.00396729
-0.00854492	0.00610352	-0.00244141
-0.00732422	0.00701904	-0.000305176
-0.00640869	0.00701904	0.000610352
-0.00579834	0.00671387	0.000915527
-0.00579834	0.00640869	0.000610352
-0.00549316	0.00579834	0.000305176
-0.00579834	0.00457764	-0.0012207
-0.00640869	0.00335693	-0.00305176
-0.00732422	0.00396729	-0.00335693
-0.00823975	0.00518799	-0.00305176
-0.00915527	0.00610352	-0.00305176
-0.0100708	0.00640869	-0.00366211
-0.0109863	0.00701904	-0.00396729
-0.0115967	0.00793457	-0.00366211
-0.012207	0.0088501	-0.00335693
-0.0125122	0.00946045	-0.00305176
-0.0119019	0.00946045	-0.00244141
-0.0109863	0.0088501	-0.00213623
-0.010376	0.00823975	-0.00213623
-0.00976563	0.00732422	-0.00244141
-0.00915527	0.00640869	-0.00274658
-0.00854492	0.00640869	-0.00213623
-0.00854492	0.00671387	-0.00183105
-0.0088501	0.00701904	-0.00183105
-0.00946045	0.00732422	-0.00213623
-0.0100708	0.00701904	-0.00305176
-0.0106812	0.00762939	-0.00305176
-0.0112915	0.0100708	-0.0012207
-0.0119019	0.0131226	0.0012207
-0.0125122	0.0158691	0.00335693
-0.0131226	0.0167847	0.00366211
-0.0137329	0.0177002	0.00396729
-0.0137329	0.0186157	0.00488281
-0.0137329	0.0186157	0.00488281
-0.0134277	0.0186157	0.00518799
-0.0134277	0.0183105	0.00488281
-0.0131226	0.017395	0.00427246
-0.0125122	0.015564	0.00305176
-0.0125122	0.0137329	0.0012207
-0.0128174	0.0125122	-0.000305176
-0.0131226	0.0109863	-0.00213623
-0.0125122	0.00946045	-0.00305176
-0.0115967	0.00823975	-0.00335693
-0.0100708	0.00793457	-0.00213623
-0.00976563	0.00823975	-0.00152588
-0.0100708	0.00854492	-0.00152588
-0.0109863	0.0088501	-0.00213623
-0.0115967	0.0088501	-0.00274658
-0.0112915	0.00823975	-0.00305176
-0.0100708	0.00762939	-0.00244141
-0.00915527	0.00732422	-0.00183105
-0.00854492	0.00671387	-0.00183105
-0.00793457	0.00640869	-0.00152588
-0.00701904	0.00549316	-0.00152588
-0.00579834	0.00366211	-0.00213623
-0.00427246	0.0012207	-0.00305176
-0.00274658	-0.000915527	-0.00366211
-0.00152588	-0.00305176	-0.00457764
-0.000610352	-0.00488281	-0.00549316
-0.000915527	-0.00579834	-0.00671387
-0.00183105	-0.00640869	-0.00823975
-0.00213623	-0.00701904	-0.00915527
-0.00244141	-0.00701904	-0.00946045
-0.00244141	-0.00579834	-0.00823975
-0.00213623	-0.00457764	-0.00671387
-0.00183105	-0.00335693	-0.00518799
-0.00152588	-0.00244141	-0.00396729
-0.00213623	-0.00213623	-0.00427246
-0.00274658	-0.00152588	-0.00427246
-0.00305176	-0.0012207	-0.00427246
-0.00305176	-0.00152588	-0.00457764
-0.00335693	-0.00213623	-0.00549316
-0.00396729	-0.00274658	-0.00671387
-0.00488281	-0.00396729	-0.0088501
-0.00579834	-0.00457764	-0.010376
-0.00579834	-0.00427246	-0.0100708
-0.00488281	-0.00366211	-0.00854492
-0.00335693	-0.00305176	-0.00640869
-0.00183105	-0.00274658	-0.00457764
0.000305176	-0.00274658	-0.00244141
0.00244141	-0.00244141	0
0.00488281	-0.00244141	0.00244141
0.00671387	-0.00274658	0.00396729
0.00823975	-0.00305176	0.00518799
0.00976563	-0.00396729	0.00579834
0.0109863	-0.00396729	0.00701904
0.012207	-0.00366211	0.00854492
0.0131226	-0.00213623	0.0109863
0.0143433	-0.000305176	0.0140381
0.0158691	0.00152588	0.017395
0.0183105	0.00305176	0.0213623
0.0213623	0.00518799	0.0265503
0.0241089	0.00762939	0.0317383
0.0274658	0.0100708	0.0375366
0.0308228	0.0119019	0.0427246
0.0338745	0.0137329	0.0476074
0.0363159	0.0149536	0.0512695
0.0387573	0.015564	0.0543213
0.0411987	0.0149536	0.0561523
0.043335	0.0137329	0.0570679
0.045166	0.0106812	0.0558472
0.0463867	0.00640869	0.0527954
0.0476074	0.000915527	0.0485229
0.0479126	-0.00518799	0.0427246
0.0482178	-0.012207	0.0360107
0.0485229	-0.0195313	0.0289917
0.0488281	-0.0268555	0.0219727
0.0476074	-0.0335693	0.0140381
0.045166	-0.0384521	0.00671387
0.0411987	-0.0411987	0
0.0360107	-0.0411987	-0.00518799
0.0296021	-0.0387573	-0.00915527
0.0219727	-0.0335693	-0.0115967
0.0143433	-0.0271606	-0.0128174
0.00671387	-0.0201416	-0.0134277
-0.000915527	-0.0131226	-0.0140381
-0.00793457	-0.00640869	-0.0143433
-0.0143433	-0.0012207	-0.015564
-0.0201416	0.00305176	-0.0170898
-0.0250244	0.00579834	-0.0192261
-0.0280762	0.00701904	-0.0210571
-0.0302124	0.00701904	-0.0231934
-0.0311279	0.00640869	-0.0247192
-0.0326538	0.00518799	-0.0274658
-0.0341797	0.00366211	-0.0305176
-0.03479	0.00213623	-0.0326538
-0.0350952	0.000915527	-0.0341797
-0.0341797	0.000305176	-0.0338745
-0.0323486	-0.000915527	-0.0332642
-0.0308228	-0.000610352	-0.0314331
-0.0296021	0.00183105	-0.027771
-0.027771	0.00640869	-0.0213623
-0.0259399	0.0106812	-0.0152588
-0.0238037	0.0137329	-0.0100708
-0.0222778	0.0152588	-0.00701904
-0.0210571	0.0177002	-0.00335693
-0.020752	0.020752	0
-0.0216675	0.0244141	0.00274658
-0.0234985	0.0283813	0.00488281
-0.0265503	0.0338745	0.00732422
-0.0314331	0.0405884	0.00915527
-0.0366211	0.0469971	0.010376
-0.0402832	0.0531006	0.0128174
-0.0396729	0.057373	0.0177002
-0.0335693	0.0598145	0.0262451
-0.022583	0.06073	0.038147
-0.00640869	0.0588989	0.0524902
0.0161743	0.0506592	0.0668335
0.0454712	0.0357056	0.0811768
0.0805664	0.0161743	0.0967407
0.118103	-0.00549316	0.11261
0.15564	-0.0265503	0.129089
0.189819	-0.0448608	0.144958
0.21637	-0.0567627	0.159607
0.231934	-0.0585938	0.17334
0.234985	-0.050354	0.184631
0.22522	-0.032959	0.192261
0.202332	-0.00793457	0.194397
0.168762	0.020752	0.189514
0.129089	0.0469971	0.176086
0.0881958	0.0646973	0.152893
0.0494385	0.0704956	0.119934
0.0152588	0.0640869	0.0793457
-0.0137329	0.0466919	0.032959
-0.0350952	0.020752	-0.0143433
-0.0479126	-0.0112915	-0.0592041
-0.0537109	-0.0454712	-0.0991821
-0.0549316	-0.0756836	-0.130615
-0.0534058	-0.0985718	-0.151978
-0.0509644	-0.111084	-0.162048
-0.0488281	-0.112305	-0.161133
-0.0485229	-0.102844	-0.151367
-0.0497437	-0.085144	-0.134888
-0.0518799	-0.0619507	-0.113831
-0.0549316	-0.0369263	-0.0918579
-0.0579834	-0.0143433	-0.0723267
-0.0592041	0.00213623	-0.0570679
-0.0585938	0.0119019	-0.0466919
-0.0558472	0.0158691	-0.039978
-0.0518799	0.0152588	-0.0366211
-0.0473022	0.0112915	-0.0360107
-0.0430298	0.00640869	-0.0366211
-0.0390625	0.00213623	-0.0369263
-0.0360107	-0.000305176	-0.0363159
-0.0335693	-0.00152588	-0.0350952
-0.0320435	-0.00244141	-0.0344849
-0.0305176	-0.00274658	-0.0332642
-0.0283813	-0.00274658	-0.0311279
-0.0262451	-0.00213623	-0.0283813
-0.0244141	-0.00183105	-0.0262451
-0.0228882	-0.00152588	-0.0244141
-0.0219727	0	-0.0219727
-0.0216675	0.00274658	-0.0189209
-0.0213623	0.00610352	-0.0152588
-0.0216675	0.0088501	-0.0128174
-0.0219727	0.0100708	-0.0119019
-0.022583	0.010376	-0.012207
-0.0231934	0.0115967	-0.0115967
-0.0234985	0.0125122	-0.0109863
-0.0238037	0.0131226	-0.0106812
-0.0238037	0.0119019	-0.0119019
-0.0238037	0.00946045	-0.0143433
-0.0231934	0.00549316	-0.0177002
-0.0222778	0.000610352	-0.0216675
-0.0213623	-0.00305176	-0.0244141
-0.0204468	-0.00427246	-0.0247192
-0.0192261	-0.00396729	-0.0231934
-0.0183105	-0.00213623	-0.0204468
-0.0177002	0.000305176	-0.017395
-0.0164795	0.00244141	-0.0140381
-0.0149536	0.00427246	-0.0106812
-0.0131226	0.00640869	-0.00671387
-0.0109863	0.00854492	-0.00244141
-0.0088501	0.0100708	0.0012207
-0.00701904	0.0100708	0.00305176
-0.00518799	0.00915527	0.00396729
-0.00366211	0.00732422	0.00366211
-0.00213623	0.00518799	0.00305176
-0.000915527	0.00366211	0.00274658
-0.000610352	0.00244141	0.00183105
-0.000305176	0.00152588	0.0012207
-0.000305176	0.00152588	0.0012207
0	0.00152588	0.00152588
0.000305176	0.00213623	0.00244141
0.000915527	0.00213623	0.00305176
0.00183105	0.00183105	0.00366211
0.00274658	0.000915527	0.00366211
0.00335693	-0.000305176	0.00305176
0.00335693	-0.000915527	0.00244141
0.00335693	-0.00183105	0.00152588
0.00335693	-0.00274658	0.000610352
0.00335693	-0.00335693	0
0.00335693	-0.00335693	0
0.00335693	-0.00305176	0.000305176
0.00335693	-0.00244141	0.000915527
0.00366211	-0.00183105	0.00183105
0.00457764	-0.00183105	0.00274658
0.00579834	-0.00183105	0.00396729
0.00732422	-0.00213623	0.00518799
0.00946045	-0.00305176	0.00640869
0.0119019	-0.00488281	0.00701904
0.0140381	-0.00732422	0.00671387
0.0158691	-0.00976563	0.00610352
0.0170898	-0.0119019	0.00518799
0.0183105	-0.0137329	0.00457764
0.0192261	-0.0146484	0.00457764
0.0195313	-0.0152588	0.00427246
0.0201416	-0.0152588	0.00488281
0.0213623	-0.0158691	0.00549316
0.0228882	-0.017395	0.00549316
0.0247192	-0.0180054	0.00671387
0.0274658	-0.0164795	0.0109863
0.0302124	-0.0134277	0.0167847
0.032959	-0.010376	0.022583
0.0357056	-0.0088501	0.0268555
0.0387573	-0.00854492	0.0302124
0.0411987	-0.0100708	0.0311279
0.0436401	-0.0115967	0.0320435
0.0460815	-0.0131226	0.032959
0.0476074	-0.0161743	0.0314331
0.0485229	-0.0186157	0.0299072
0.0491333	-0.0210571	0.0280762
0.0497437	-0.0241089	0.0256348
0.0497437	-0.0274658	0.0222778
0.0494385	-0.0302124	0.0192261
0.0500488	-0.0323486	0.0177002
0.0515747	-0.0335693	0.0180054
0.0527954	-0.0338745	0.0189209
0.0534058	-0.0332642	0.0201416
0.0540161	-0.032959	0.0210571
0.0546265	-0.0332642	0.0213623
0.0558472	-0.0344849	0.0213623
0.0576782	-0.0366211	0.0210571
0.0601196	-0.0390625	0.0210571
0.0622559	-0.0411987	0.0210571
0.0637817	-0.0424194	0.0213623
0.0653076	-0.043335	0.0219727
0.0662231	-0.043335	0.0228882
0.0665283	-0.0430298	0.0234985
0.0665283	-0.0421143	0.0244141
0.0656128	-0.0405884	0.0250244
0.0640869	-0.038147	0.0259399
0.0616455	-0.0344849	0.0271606
0.0588989	-0.0311279	0.027771
0.0558472	-0.0289917	0.0268555
0.0524902	-0.0265503	0.0259399
0.0485229	-0.0234985	0.0250244
0.0442505	-0.0198364	0.0244141
0.0390625	-0.0161743	0.0228882
0.0335693	-0.0128174	0.020752
0.0286865	-0.00976563	0.0189209
0.0244141	-0.00701904	0.017395
0.020752	-0.00366211	0.0170898
0.0170898	-0.000915527	0.0161743
0.0134277	0.00183105	0.0152588
0.00915527	0.00518799	0.0143433
0.00518799	0.00793457	0.0131226
0.00213623	0.010376	0.0125122
-0.000915527	0.012207	0.0112915
-0.00396729	0.0137329	0.00976563
-0.00793457	0.0152588	0.00732422
-0.0125122	0.0167847	0.00427246
-0.017395	0.0180054	0.000610352
-0.022583	0.0186157	-0.00396729
-0.027771	0.0192261	-0.00854492
-0.0317383	0.0198364	-0.0119019
-0.0344849	0.0204468	-0.0140381
-0.0366211	0.0204468	-0.0161743
-0.038147	0.0210571	-0.0170898
-0.038147	0.0216675	-0.0164795
-0.0372314	0.022583	-0.0146484
-0.0354004	0.022583	-0.0128174
-0.032959	0.0228882	-0.0100708
-0.0311279	0.0231934	-0.00793457
-0.0302124	0.0231934	-0.00701904
-0.0299072	0.0228882	-0.00701904
-0.0299072	0.022583	-0.00732422
-0.0299072	0.0222778	-0.00762939
-0.0292969	0.0216675	-0.00762939
-0.0286865	0.0210571	-0.00762939
-0.0283813	0.0198364	-0.00854492
-0.0280762	0.0189209	-0.00915527
-0.0274658	0.0183105	-0.00915527
-0.0265503	0.0180054	-0.00854492
-0.0250244	0.0180054	-0.00701904
-0.0228882	0.0180054	-0.00488281
-0.020752	0.0177002	-0.00305176
-0.0192261	0.0186157	-0.000610352
-0.0180054	0.0195313	0.00152588
-0.0180054	0.0195313	0.00152588
-0.0180054	0.0195313	0.00152588
-0.0177002	0.0195313	0.00183105
-0.017395	0.0195313	0.00213623
-0.0180054	0.0195313	0.00152588
-0.0186157	0.0186157	0
-0.0189209	0.0170898	-0.00183105
-0.0192261	0.0149536	-0.00427246
-0.0192261	0.0125122	-0.00671387
-0.0195313	0.00946045	-0.0100708
-0.0198364	0.00671387	-0.0131226
-0.0195313	0.00518799	-0.0143433
-0.0183105	0.00457764	-0.0137329
-0.0170898	0.00396729	-0.0131226
-0.0158691	0.00366211	-0.012207
-0.0149536	0.00427246	-0.0106812
-0.0143433	0.00549316	-0.0088501
-0.0131226	0.00701904	-0.00610352
-0.012207	0.0088501	-0.00335693
-0.0112915	0.0100708	-0.0012207
-0.0106812	0.0109863	0.000305176
-0.0100708	0.0109863	0.000915527
-0.00946045	0.010376	0.000915527
-0.00946045	0.00946045	0
-0.00976563	0.00854492	-0.0012207
-0.010376	0.00732422	-0.00305176
-0.010376	0.00610352	-0.00427246
-0.0100708	0.00457764	-0.00549316
-0.010376	0.00366211	-0.00671387
-0.0115967	0.00335693	-0.00823975
-0.0131226	0.00427246	-0.0088501
-0.0140381	0.00549316	-0.00854492
-0.0143433	0.00671387	-0.00762939
-0.0143433	0.00762939	-0.00671387
-0.0140381	0.00854492	-0.00549316
-0.0140381	0.00946045	-0.00457764
-0.0140381	0.00976563	-0.00427246
-0.0134277	0.00976563	-0.00366211
-0.0119019	0.00946045	-0.00244141
-0.00976563	0.00854492	-0.0012207
-0.00793457	0.00701904	-0.000915527
-0.00640869	0.00579834	-0.000610352
-0.00549316	0.00427246	-0.0012207
-0.00457764	0.00274658	-0.00183105
-0.00366211	0.00152588	-0.00213623
-0.00305176	0.000610352	-0.00244141
-0.00244141	0.000610352	-0.00183105
-0.00335693	0.0012207	-0.00213623
-0.00518799	0.00244141	-0.00274658
-0.00701904	0.00274658	-0.00427246
-0.00793457	0.00274658	-0.00518799
-0.00793457	0.00305176	-0.00488281
-0.00793457	0.00366211	-0.00427246
-0.00823975	0.00457764	-0.00366211
-0.00854492	0.00518799	-0.00335693
-0.00793457	0.00549316	-0.00244141
-0.00610352	0.00610352	0
-0.00366211	0.00579834	0.00213623
-0.0012207	0.00549316	0.00427246
0.000610352	0.00518799	0.00579834
0.00183105	0.00457764	0.00640869
0.00244141	0.00427246	0.00671387
0.00213623	0.00457764	0.00671387
0.000915527	0.00640869	0.00732422
-0.000610352	0.00762939	0.00701904
-0.00213623	0.00854492	0.00640869
-0.00305176	0.0088501	0.00579834
-0.00396729	0.00915527	0.00518799
-0.00518799	0.00946045	0.00427246
-0.00610352	0.0100708	0.00396729
-0.00610352	0.00976563	0.00366211
-0.00610352	0.00915527	0.00305176
-0.00640869	0.00946045	0.00305176
-0.00701904	0.010376	0.00335693
-0.00671387	0.00976563	0.00305176
-0.00671387	0.00823975	0.00152588
-0.00732422	0.00762939	0.000305176
-0.00823975	0.00854492	0.000305176
-0.00915527	0.0088501	-0.000305176
-0.00946045	0.00854492	-0.000915527
-0.0088501	0.00732422	-0.00152588
-0.00732422	0.00579834	-0.00152588
-0.00549316	0.00488281	-0.000610352
-0.00366211	0.00488281	0.0012207
-0.00152588	0.00457764	0.00305176
0.00152588	0.00305176	0.00457764
0.00427246	0.000915527	0.00518799
0.00610352	0	0.00610352
0.00671387	0	0.00671387
0.00610352	0.000610352	0.00671387
0.00488281	0.0012207	0.00610352
0.00274658	0.0012207	0.00396729
0.000610352	0.000610352	0.0012207
-0.00152588	0	-0.00152588
-0.00366211	-0.000915527	-0.00457764
-0.00640869	-0.00183105	-0.00823975
-0.00854492	-0.00244141	-0.0109863
-0.0100708	-0.00305176	-0.0131226
-0.0100708	-0.00396729	-0.0140381
-0.00946045	-0.00457764	-0.0140381
-0.00915527	-0.00488281	-0.0140381
-0.00946045	-0.00518799	-0.0146484
-0.00976563	-0.00488281	-0.0146484
-0.00976563	-0.00427246	-0.0140381
-0.00946045	-0.00305176	-0.0125122
-0.00854492	-0.00274658	-0.0112915
-0.00762939	-0.00274658	-0.010376
-0.00640869	-0.00183105	-0.00823975
-0.00549316	-0.00183105	-0.00732422
-0.00396729	-0.00213623	-0.00610352
-0.00274658	-0.00274658	-0.00549316
-0.0012207	-0.00366211	-0.00488281
0	-0.00518799	-0.00518799
0.000915527	-0.00701904	-0.00610352
0.0012207	-0.00823975	-0.00701904
0.000610352	-0.00793457	-0.00732422
-0.000610352	-0.00762939	-0.00823975
-0.00152588	-0.00762939	-0.00915527
-0.00244141	-0.00762939	-0.0100708
-0.00335693	-0.00640869	-0.00976563
-0.00457764	-0.00427246	-0.0088501
-0.00610352	-0.00244141	-0.00854492
-0.00671387	-0.0012207	-0.00793457
-0.00671387	-0.000915527	-0.00762939
-0.00610352	-0.00152588	-0.00762939
-0.00549316	-0.00274658	-0.00823975
-0.00549316	-0.00396729	-0.00946045
-0.00518799	-0.00549316	-0.0106812
-0.00427246	-0.00732422	-0.0115967
-0.00335693	-0.00793457	-0.0112915
-0.00305176	-0.00793457	-0.0109863
-0.00366211	-0.00762939	-0.0112915
-0.00457764	-0.00732422	-0.0119019
-0.00488281	-0.00732422	-0.012207
-0.00488281	-0.00640869	-0.0112915
-0.00488281	-0.00518799	-0.0100708
-0.00488281	-0.00457764	-0.00946045
-0.00457764	-0.00396729	-0.00854492
-0.00457764	-0.00274658	-0.00732422
-0.00488281	-0.000610352	-0.00549316
-0.00457764	0.000305176	-0.00427246
-0.00396729	0.000305176	-0.00366211
-0.00305176	0.000610352	-0.00244141
-0.00274658	0.00183105	-0.000915527
-0.00274658	0.00335693	0.000610352
-0.00244141	0.00396729	0.00152588
-0.00183105	0.00396729	0.00213623
-0.00183105	0.00335693	0.00152588
-0.00213623	0.00213623	0
-0.00213623	0.000610352	-0.00152588
-0.00244141	-0.00152588	-0.00396729
-0.00213623	-0.00396729	-0.00610352
-0.00183105	-0.00488281	-0.00671387
-0.00213623	-0.00518799	-0.00732422
-0.00274658	-0.00610352	-0.0088501
-0.00305176	-0.00793457	-0.0109863
-0.00305176	-0.00793457	-0.0109863
-0.00366211	-0.00671387	-0.010376
-0.00457764	-0.00488281	-0.00946045
-0.00518799	-0.00335693	-0.00854492
-0.00488281	-0.00183105	-0.00671387
-0.00366211	-0.000915527	-0.00457764
-0.0012207	-0.000915527	-0.00213623
0.00213623	-0.00152588	0.000610352
0.00579834	-0.00274658	0.00305176
0.00946045	-0.00335693	0.00610352
0.0137329	-0.00396729	0.00976563
0.0186157	-0.00488281	0.0137329
0.0241089	-0.00640869	0.0177002
0.0289917	-0.00732422	0.0216675
0.0323486	-0.00701904	0.0253296
0.0350952	-0.00610352	0.0289917
0.0369263	-0.00457764	0.0323486
0.038147	-0.00213623	0.0360107
0.0384521	0.000610352	0.0390625
0.0378418	0.00335693	0.0411987
0.0363159	0.00610352	0.0424194
0.0350952	0.0088501	0.0439453
0.0341797	0.0112915	0.0454712
0.0338745	0.0134277	0.0473022
0.0341797	0.0140381	0.0482178
0.0350952	0.0125122	0.0476074
0.0366211	0.00946045	0.0460815
0.038147	0.00488281	0.0430298
0.039978	-0.00152588	0.0384521
0.0421143	-0.00946045	0.0326538
0.0445557	-0.0180054	0.0265503
0.0463867	-0.0265503	0.0198364
0.0476074	-0.0341797	0.0134277
0.0473022	-0.0405884	0.00671387
0.0448608	-0.0454712	-0.000610352
0.0408936	-0.0476074	-0.00671387
0.0350952	-0.0466919	-0.0115967
0.027771	-0.0430298	-0.0152588
0.0201416	-0.0369263	-0.0167847
0.012207	-0.0289917	-0.0167847
0.00396729	-0.0210571	-0.0170898
-0.00427246	-0.0134277	-0.0177002
-0.012207	-0.00671387	-0.0189209
-0.0195313	0	-0.0195313
-0.0262451	0.00518799	-0.0210571
-0.0320435	0.00915527	-0.0228882
-0.0366211	0.0112915	-0.0253296
-0.0393677	0.0119019	-0.0274658
-0.0408936	0.0119019	-0.0289917
-0.0421143	0.0119019	-0.0302124
-0.0430298	0.0112915	-0.0317383
-0.0424194	0.0109863	-0.0314331
-0.0402832	0.010376	-0.0299072
-0.0375366	0.00976563	-0.027771
-0.0341797	0.0088501	-0.0253296
-0.0305176	0.00701904	-0.0234985
-0.0265503	0.00488281	-0.0216675
-0.0228882	0.00305176	-0.0198364
-0.0201416	0.00213623	-0.0180054
-0.0186157	0.00183105	-0.0167847
-0.0189209	0.0012207	-0.0177002
-0.0198364	0	-0.0198364
-0.0216675	-0.000305176	-0.0219727
-0.0244141	0.00152588	-0.0228882
-0.0280762	0.00610352	-0.0219727
-0.0326538	0.0131226	-0.0195313
-0.0375366	0.022583	-0.0149536
-0.0427246	0.0338745	-0.0088501
-0.0457764	0.0442505	-0.00152588
-0.043335	0.0512695	0.00793457
-0.0354004	0.0549316	0.0195313
-0.0219727	0.0558472	0.0338745
-0.00305176	0.0524902	0.0494385
0.0216675	0.043335	0.0650024
0.0515747	0.027771	0.0793457
0.0866699	0.00701904	0.093689
0.124512	-0.0158691	0.108643
0.161438	-0.038147	0.123291
0.195313	-0.0579834	0.137329
0.221863	-0.071106	0.150757
0.236816	-0.0738525	0.162964
0.239258	-0.0637817	0.175476
0.228882	-0.0439453	0.184937
0.205383	-0.0177002	0.187683
0.171814	0.0112915	0.183105
0.133057	0.0372314	0.170288
0.0930786	0.0552368	0.148315
0.0543213	0.0619507	0.116272
0.0192261	0.057373	0.0765991
-0.00976563	0.0421143	0.0323486
-0.0323486	0.0183105	-0.0140381
-0.0476074	-0.0112915	-0.0588989
-0.0558472	-0.043335	-0.0991821
-0.0592041	-0.0723267	-0.131531
-0.0592041	-0.093689	-0.152893
-0.0576782	-0.105286	-0.162964
-0.0567627	-0.105591	-0.162354
-0.0576782	-0.0949097	-0.152588
-0.0601196	-0.0756836	-0.135803
-0.0637817	-0.0515747	-0.115356
-0.0665283	-0.0274658	-0.0939941
-0.0674438	-0.00671387	-0.0741577
-0.0665283	0.00823975	-0.0582886
-0.0628662	0.017395	-0.0454712
-0.0582886	0.0213623	-0.0369263
-0.0527954	0.0213623	-0.0314331
-0.0469971	0.0170898	-0.0299072
-0.0411987	0.0119019	-0.0292969
-0.0369263	0.00762939	-0.0292969
-0.0344849	0.00366211	-0.0308228
-0.0335693	0.000610352	-0.032959
-0.032959	0	-0.032959
-0.032959	0.000610352	-0.0323486
-0.0323486	0.00152588	-0.0308228
-0.0320435	0.00274658	-0.0292969
-0.0311279	0.00396729	-0.0271606
-0.0296021	0.00579834	-0.0238037
-0.0271606	0.00732422	-0.0198364
-0.0247192	0.00915527	-0.015564
-0.0228882	0.0109863	-0.0119019
-0.0210571	0.0131226	-0.00793457
-0.0192261	0.0152588	-0.00396729
-0.0180054	0.0158691	-0.00213623
-0.0167847	0.015564	-0.0012207
-0.0161743	0.015564	-0.000610352
-0.015564	0.0152588	-0.000305176
-0.0149536	0.0134277	-0.00152588
-0.0143433	0.0109863	-0.00335693
-0.0146484	0.00946045	-0.00518799
-0.0146484	0.00823975	-0.00640869
-0.0146484	0.00793457	-0.00671387
-0.0140381	0.00701904	-0.00701904
-0.0137329	0.00610352	-0.00762939
-0.0134277	0.00579834	-0.00762939
-0.0137329	0.00640869	-0.00732422
-0.0140381	0.00671387	-0.00732422
-0.0137329	0.00762939	-0.00610352
-0.0131226	0.00762939	-0.00549316
-0.012207	0.00701904	-0.00518799
-0.0112915	0.00640869	-0.00488281
-0.0109863	0.00610352	-0.00488281
-0.0109863	0.00610352	-0.00488281
-0.0112915	0.00640869	-0.00488281
-0.0115967	0.00579834	-0.00579834
-0.0119019	0.00488281	-0.00701904
-0.0115967	0.00335693	-0.00823975
-0.00976563	0.00183105	-0.00793457
-0.00671387	0.0012207	-0.00549316
-0.00305176	0.000915527	-0.00213623
0.000305176	0.000915527	0.0012207
0.00366211	0.000915527	0.00457764
0.00671387	0.000305176	0.00701904
0.00976563	-0.000915527	0.0088501
0.0115967	-0.00213623	0.00946045
0.0128174	-0.00244141	0.010376
0.0128174	-0.00244141	0.010376
0.0115967	-0.00183105	0.00976563
0.00976563	-0.0012207	0.00854492
0.00793457	-0.0012207	0.00671387
0.00671387	-0.00183105	0.00488281
0.00610352	-0.00305176	0.00305176
0.00671387	-0.00396729	0.00274658
0.00823975	-0.00366211	0.00457764
0.00976563	-0.00274658	0.00701904
0.0112915	-0.00244141	0.0088501
0.0128174	-0.00305176	0.00976563
0.0137329	-0.00366211	0.0100708
0.0143433	-0.00457764	0.00976563
0.0146484	-0.00549316	0.00915527
0.0143433	-0.00610352	0.00823975
0.0140381	-0.00671387	0.00732422
0.0134277	-0.00762939	0.00579834
0.0137329	-0.00915527	0.00457764
0.0149536	-0.0109863	0.00396729
0.0167847	-0.0134277	0.00335693
0.0192261	-0.0158691	0.00335693
0.022583	-0.0180054	0.00457764
0.0262451	-0.0192261	0.00701904
0.0302124	-0.0213623	0.0088501
0.0338745	-0.0238037	0.0100708
0.0375366	-0.0256348	0.0119019
0.0402832	-0.0274658	0.0128174
0.0421143	-0.0280762	0.0140381
0.0436401	-0.0283813	0.0152588
0.0448608	-0.0289917	0.0158691
0.0463867	-0.0302124	0.0161743
0.0473022	-0.0311279	0.0161743
0.0479126	-0.0317383	0.0161743
0.0485229	-0.032959	0.015564
0.0494385	-0.03479	0.0146484
0.0506592	-0.0369263	0.0137329
0.0515747	-0.0390625	0.0125122
0.0531006	-0.0418091	0.0112915
0.0549316	-0.0448608	0.0100708
0.0570679	-0.0479126	0.00915527
0.0582886	-0.0506592	0.00762939
0.0595093	-0.0531006	0.00640869
0.06073	-0.0549316	0.00579834
0.0619507	-0.0558472	0.00610352
0.0634766	-0.0558472	0.00762939
0.0646973	-0.0561523	0.00854492
0.0656128	-0.0567627	0.0088501
0.0662231	-0.0564575	0.00976563
0.0668335	-0.0543213	0.0125122
0.0671387	-0.0512695	0.0158691
0.0671387	-0.0485229	0.0186157
0.0662231	-0.0466919	0.0195313
0.0640869	-0.0445557	0.0195313
0.0610352	-0.0427246	0.0183105
0.057373	-0.0402832	0.0170898
0.0527954	-0.0375366	0.0152588
0.0485229	-0.0354004	0.0131226
0.0442505	-0.0341797	0.0100708
0.0393677	-0.0332642	0.00610352
0.0341797	-0.0320435	0.00213623
0.0296021	-0.0308228	-0.0012207
0.0259399	-0.0292969	-0.00335693
0.022583	-0.0262451	-0.00366211
0.0189209	-0.0222778	-0.00335693
0.015564	-0.0183105	-0.00274658
0.0119019	-0.0146484	-0.00274658
0.00823975	-0.0106812	-0.00244141
0.00396729	-0.00640869	-0.00244141
-0.000915527	-0.00213623	-0.00305176
-0.00610352	0.000915527	-0.00518799
-0.0112915	0.00274658	-0.00854492
-0.0161743	0.00366211	-0.0125122
-0.020752	0.00396729	-0.0167847
-0.0247192	0.00305176	-0.0216675
-0.0283813	0.00244141	-0.0259399
-0.0311279	0.00213623	-0.0289917
-0.0335693	0.00244141	-0.0311279
-0.03479	0.00305176	-0.0317383
-0.0350952	0.00366211	-0.0314331
-0.0350952	0.00488281	-0.0302124
-0.03479	0.00671387	-0.0280762
-0.03479	0.00823975	-0.0265503
-0.0341797	0.00946045	-0.0247192
-0.032959	0.00946045	-0.0234985
-0.0311279	0.00915527	-0.0219727
-0.0299072	0.00915527	-0.020752
-0.0289917	0.00915527	-0.0198364
-0.0280762	0.0088501	-0.0192261
-0.027771	0.00793457	-0.0198364
-0.0274658	0.00701904	-0.0204468
-0.0271606	0.00671387	-0.0204468
-0.0271606	0.00732422	-0.0198364
-0.0268555	0.00823975	-0.0186157
-0.0262451	0.00823975	-0.0180054
-0.0262451	0.00701904	-0.0192261
-0.0259399	0.00610352	-0.0198364
-0.0253296	0.00518799	-0.0201416
-0.0244141	0.00396729	-0.0204468
-0.0238037	0.00213623	-0.0216675
-0.0231934	0.000915527	-0.0222778
-0.022583	0	-0.022583
-0.0216675	-0.000610352	-0.0222778
-0.0210571	0	-0.0210571
-0.020752	0.000610352	-0.0201416
-0.0204468	0.000610352	-0.0198364
-0.0201416	0.000305176	-0.0198364
-0.0201416	0.000610352	-0.0195313
-0.0198364	0.00152588	-0.0183105
-0.0192261	0.00183105	-0.017395
-0.0180054	0.00183105	-0.0161743
-0.0167847	0.0012207	-0.015564
-0.0158691	0	-0.0158691
-0.0149536	-0.000915527	-0.0158691
-0.0143433	-0.0012207	-0.015564
-0.0137329	-0.0012207	-0.0149536
-0.0134277	-0.00152588	-0.0149536
-0.0128174	-0.00183105	-0.0146484
-0.012207	-0.00183105	-0.0140381
-0.0112915	-0.00152588	-0.0128174
-0.0109863	-0.0012207	-0.012207
-0.010376	-0.000915527	-0.0112915
-0.010376	-0.000305176	-0.0106812
-0.0106812	-0.000305176	-0.0109863
-0.0112915	0	-0.0112915
-0.0112915	-0.000305176	-0.0115967
-0.0115967	-0.000305176	-0.0119019
-0.0125122	-0.000305176	-0.0128174
-0.0134277	-0.000610352	-0.0140381
-0.0140381	-0.0012207	-0.0152588
-0.0143433	-0.00152588	-0.0158691
-0.0143433	-0.000305176	-0.0146484
-0.0143433	0.000610352	-0.0137329
-0.0143433	0.000915527	-0.0134277
-0.0146484	0.000915527	-0.0137329
-0.0140381	0.0012207	-0.0128174
-0.0128174	0.00183105	-0.0109863
-0.0112915	0.00274658	-0.00854492
-0.010376	0.00396729	-0.00640869
-0.010376	0.00457764	-0.00579834
-0.0100708	0.00488281	-0.00518799
-0.00976563	0.00457764	-0.00518799
-0.00915527	0.00396729	-0.00518799
-0.00823975	0.00396729	-0.00427246
-0.00762939	0.00457764	-0.00305176
-0.00762939	0.00579834	-0.00183105
-0.00854492	0.00701904	-0.00152588
-0.00976563	0.00793457	-0.00183105
-0.010376	0.00823975	-0.00213623
-0.0106812	0.00762939	-0.00305176
-0.0109863	0.00701904	-0.00396729
-0.0106812	0.00762939	-0.00305176
-0.0100708	0.00915527	-0.000915527
-0.00946045	0.00915527	-0.000305176
-0.00823975	0.00732422	-0.000915527
-0.00671387	0.00518799	-0.00152588
-0.00518799	0.00366211	-0.00152588
-0.00427246	0.00213623	-0.00213623
-0.00396729	0.00152588	-0.00244141
-0.00396729	0.00152588	-0.00244141
-0.00457764	0.00152588	-0.00305176
-0.00579834	0.000915527	-0.00488281
-0.00732422	0.000915527	-0.00640869
-0.00854492	0.00183105	-0.00671387
-0.00976563	0.00366211	-0.00610352
-0.0106812	0.00488281	-0.00579834
-0.0109863	0.00518799	-0.00579834
-0.0109863	0.00518799	-0.00579834
-0.010376	0.00549316	-0.00488281
-0.0100708	0.00579834	-0.00427246
-0.00946045	0.00549316	-0.00396729
-0.00854492	0.00427246	-0.00427246
-0.00762939	0.00305176	-0.00457764
-0.00671387	0.00213623	-0.00457764
-0.00640869	0.00183105	-0.00457764
-0.00671387	0.00213623	-0.00457764
-0.00701904	0.00183105	-0.00518799
-0.00701904	0.0012207	-0.00579834
-0.00701904	0.000305176	-0.00671387
-0.00701904	-0.000610352	-0.00762939
-0.00671387	-0.0012207	-0.00793457
-0.00579834	-0.00183105	-0.00762939
-0.00518799	-0.00213623	-0.00732422
-0.00488281	-0.00213623	-0.00701904
-0.00488281	-0.00152588	-0.00640869
-0.00457764	-0.000915527	-0.00549316
-0.00366211	-0.0012207	-0.00488281
-0.00274658	-0.000915527	-0.00366211
-0.00274658	-0.000305176	-0.00305176
-0.00305176	0.000610352	-0.00244141
-0.00335693	0.00183105	-0.00152588
-0.00274658	0.00305176	0.000305176
-0.00244141	0.00366211	0.0012207
-0.00244141	0.00396729	0.00152588
-0.00305176	0.00396729	0.000915527
-0.00396729	0.00366211	-0.000305176
-0.00457764	0.00274658	-0.00183105
-0.00549316	0.00183105	-0.00366211
-0.00701904	0.00183105	-0.00518799
-0.0088501	0.00213623	-0.00671387
-0.0109863	0.00183105	-0.00915527
-0.0131226	0.000915527	-0.012207
-0.0149536	0.000610352	-0.0143433
-0.0164795	0.00183105	-0.0146484
-0.0170898	0.00366211	-0.0134277
-0.0167847	0.00457764	-0.012207
-0.015564	0.00396729	-0.0115967
-0.0137329	0.00427246	-0.00946045
-0.0109863	0.00579834	-0.00518799
-0.0088501	0.00762939	-0.0012207
-0.00640869	0.00854492	0.00213623
-0.00396729	0.00823975	0.00427246
-0.00213623	0.00732422	0.00518799
-0.0012207	0.00671387	0.00549316
