L I	L III	L II(Calc.)
-0.0286865	0.00976563	-0.0189209
-0.0280762	0.00823975	-0.0198364
-0.027771	0.00701904	-0.020752
-0.027771	0.00640869	-0.0213623
-0.0286865	0.00640869	-0.0222778
-0.0292969	0.00640869	-0.0228882
-0.0299072	0.00579834	-0.0241089
-0.0299072	0.00579834	-0.0241089
-0.0299072	0.00610352	-0.0238037
-0.0308228	0.00701904	-0.0238037
-0.0323486	0.00793457	-0.0244141
-0.0335693	0.00915527	-0.0244141
-0.0344849	0.00946045	-0.0250244
-0.0350952	0.00915527	-0.0259399
-0.0350952	0.0088501	-0.0262451
-0.0350952	0.00854492	-0.0265503
-0.0350952	0.00854492	-0.0265503
-0.03479	0.00854492	-0.0262451
-0.0338745	0.00793457	-0.0259399
-0.0320435	0.00701904	-0.0250244
-0.0302124	0.00610352	-0.0241089
-0.0280762	0.00488281	-0.0231934
-0.0265503	0.00305176	-0.0234985
-0.0250244	0.00152588	-0.0234985
-0.0238037	0.000610352	-0.0231934
-0.0238037	0.000915527	-0.0228882
-0.0244141	0.0012207	-0.0231934
-0.0262451	0.00152588	-0.0247192
-0.0283813	0.00183105	-0.0265503
-0.0302124	0.00274658	-0.0274658
-0.0323486	0.00366211	-0.0286865
-0.0335693	0.00488281	-0.0286865
-0.0344849	0.00610352	-0.0283813
-0.0338745	0.00671387	-0.0271606
-0.0317383	0.00671387	-0.0250244
-0.0289917	0.00610352	-0.0228882
-0.0262451	0.00518799	-0.0210571
-0.0231934	0.00396729	-0.0192261
-0.0198364	0.00244141	-0.017395
-0.0167847	0.000610352	-0.0161743
-0.0149536	0.000610352	-0.0143433
-0.0143433	0.00152588	-0.0128174
-0.0146484	0.00274658	-0.0119019
-0.0158691	0.00396729	-0.0119019
-0.0170898	0.00518799	-0.0119019
-0.0183105	0.00640869	-0.0119019
-0.0198364	0.00762939	-0.012207
-0.020752	0.00793457	-0.0128174
-0.0213623	0.00793457	-0.0134277
-0.0216675	0.00732422	-0.0143433
-0.0210571	0.00518799	-0.0158691
-0.0195313	0.00274658	-0.0167847
-0.0186157	0.000610352	-0.0180054
-0.0177002	-0.00183105	-0.0195313
-0.0167847	-0.00366211	-0.0204468
-0.0161743	-0.00427246	-0.0204468
-0.0158691	-0.00305176	-0.0189209
-0.0158691	-0.0012207	-0.0170898
-0.0164795	0.000915527	-0.015564
-0.017395	0.00335693	-0.0140381
-0.0186157	0.00488281	-0.0137329
-0.0201416	0.00701904	-0.0131226
-0.0216675	0.00823975	-0.0134277
-0.022583	0.00854492	-0.0140381
-0.0231934	0.00823975	-0.0149536
-0.0228882	0.00732422	-0.015564
-0.0216675	0.00579834	-0.0158691
-0.0198364	0.00305176	-0.0167847
-0.0177002	-0.000610352	-0.0183105
-0.0158691	-0.00366211	-0.0195313
-0.0143433	-0.00579834	-0.0201416
-0.0131226	-0.00640869	-0.0195313
-0.0131226	-0.00610352	-0.0192261
-0.0134277	-0.00579834	-0.0192261
-0.0140381	-0.00549316	-0.0195313
-0.0146484	-0.00488281	-0.0195313
-0.015564	-0.00457764	-0.0201416
-0.0170898	-0.00396729	-0.0210571
-0.0183105	-0.00213623	-0.0204468
-0.0198364	0.000305176	-0.0195313
-0.0204468	0.00244141	-0.0180054
-0.0201416	0.00274658	-0.017395
-0.0186157	0.00183105	-0.0167847
-0.0167847	0.000915527	-0.0158691
-0.0152588	0.000305176	-0.0149536
-0.0143433	0.000610352	-0.0137329
-0.0140381	0.000915527	-0.0131226
-0.0137329	0.000305176	-0.0134277
-0.0131226	-0.0012207	-0.0143433
-0.012207	-0.00274658	-0.0149536
-0.012207	-0.00366211	-0.0158691
-0.012207	-0.00396729	-0.0161743
-0.0128174	-0.00366211	-0.0164795
-0.0137329	-0.00396729	-0.0177002
-0.0143433	-0.00518799	-0.0195313
-0.0152588	-0.00610352	-0.0213623
-0.0161743	-0.00671387	-0.0228882
-0.0167847	-0.00762939	-0.0244141
-0.017395	-0.00854492	-0.0259399
-0.0183105	-0.0088501	-0.0271606
-0.0198364	-0.00854492	-0.0283813
-0.0210571	-0.00732422	-0.0283813
-0.0216675	-0.00610352	-0.027771
-0.0219727	-0.00488281	-0.0268555
-0.0216675	-0.00366211	-0.0253296
-0.020752	-0.00183105	-0.022583
-0.0195313	-0.000305176	-0.0198364
-0.0183105	0.000305176	-0.0180054
-0.0164795	-0.000305176	-0.0167847
-0.0143433	-0.00152588	-0.0158691
-0.012207	-0.00274658	-0.0149536
-0.0100708	-0.00427246	-0.0143433
-0.00854492	-0.00610352	-0.0146484
-0.00793457	-0.00762939	-0.015564
-0.00823975	-0.00854492	-0.0167847
-0.0088501	-0.00854492	-0.017395
-0.00915527	-0.00793457	-0.0170898
-0.00946045	-0.00701904	-0.0164795
-0.0100708	-0.00579834	-0.0158691
-0.0106812	-0.00549316	-0.0161743
-0.0106812	-0.00579834	-0.0164795
-0.010376	-0.00640869	-0.0167847
-0.0106812	-0.00640869	-0.0170898
-0.0112915	-0.00640869	-0.0177002
-0.0115967	-0.00640869	-0.0180054
-0.0112915	-0.00671387	-0.0180054
-0.0112915	-0.00640869	-0.0177002
-0.0115967	-0.00488281	-0.0164795
-0.012207	-0.00335693	-0.015564
-0.0115967	-0.00183105	-0.0134277
-0.010376	-0.000915527	-0.0112915
-0.00854492	-0.000305176	-0.0088501
-0.00701904	0	-0.00701904
-0.00518799	-0.000305176	-0.00549316
-0.00366211	-0.0012207	-0.00488281
-0.00244141	-0.00244141	-0.00488281
-0.00183105	-0.00335693	-0.00518799
-0.00213623	-0.00396729	-0.00610352
-0.00366211	-0.00396729	-0.00762939
-0.00610352	-0.00366211	-0.00976563
-0.00793457	-0.00305176	-0.0109863
-0.0088501	-0.00213623	-0.0109863
-0.00915527	-0.00152588	-0.0106812
-0.00946045	-0.000305176	-0.00976563
-0.00946045	0	-0.00946045
-0.0088501	0.000305176	-0.00854492
-0.00793457	0.000610352	-0.00732422
-0.00610352	0	-0.00610352
-0.00396729	-0.000610352	-0.00457764
-0.00183105	-0.0012207	-0.00305176
-0.000610352	-0.00152588	-0.00213623
-0.000305176	-0.0012207	-0.00152588
-0.000610352	-0.000610352	-0.0012207
-0.0012207	0	-0.0012207
-0.00152588	0	-0.00152588
-0.00152588	-0.000610352	-0.00213623
-0.000915527	-0.000915527	-0.00183105
0	-0.000915527	-0.000915527
0.000915527	-0.000915527	0
0.00152588	-0.000915527	0.000610352
0.00152588	-0.000610352	0.000915527
0.0012207	-0.000610352	0.000610352
0.0012207	-0.000915527	0.000305176
0.000915527	-0.00152588	-0.000610352
-0.000305176	-0.00152588	-0.00183105
-0.00213623	-0.00152588	-0.00366211
-0.00457764	-0.00152588	-0.00610352
-0.00701904	-0.00152588	-0.00854492
-0.0088501	-0.00244141	-0.0112915
-0.00976563	-0.00366211	-0.0134277
-0.00976563	-0.00427246	-0.0140381
-0.00976563	-0.00305176	-0.0128174
-0.0100708	-0.000305176	-0.010376
-0.0100708	0.00213623	-0.00793457
-0.00915527	0.00396729	-0.00518799
-0.00793457	0.00518799	-0.00274658
-0.00640869	0.00610352	-0.000305176
-0.00549316	0.00640869	0.000915527
-0.00549316	0.00640869	0.000915527
-0.00610352	0.00610352	0
-0.00671387	0.00579834	-0.000915527
-0.00762939	0.00488281	-0.00274658
-0.00823975	0.00335693	-0.00488281
-0.00915527	0.00213623	-0.00701904
-0.0100708	0.0012207	-0.0088501
-0.0109863	0.0012207	-0.00976563
-0.0115967	0.00152588	-0.0100708
-0.0119019	0.00274658	-0.00915527
-0.0119019	0.00427246	-0.00762939
-0.0115967	0.00518799	-0.00640869
-0.0109863	0.00457764	-0.00640869
-0.00915527	0.00183105	-0.00732422
-0.00671387	-0.00183105	-0.00854492
-0.00518799	-0.00396729	-0.00915527
-0.00457764	-0.00457764	-0.00915527
-0.00457764	-0.00457764	-0.00915527
-0.00427246	-0.00488281	-0.00915527
-0.00366211	-0.00488281	-0.00854492
-0.00366211	-0.00457764	-0.00823975
-0.00457764	-0.00366211	-0.00823975
-0.00671387	-0.00183105	-0.00854492
-0.00854492	0	-0.00854492
-0.0100708	0.00152588	-0.00854492
-0.010376	0.00244141	-0.00793457
-0.00976563	0.00305176	-0.00671387
-0.00732422	0.00274658	-0.00457764
-0.00427246	0.00152588	-0.00274658
-0.000610352	0.000305176	-0.000305176
0.00305176	-0.000610352	0.00244141
0.00701904	-0.000915527	0.00610352
0.0106812	-0.000305176	0.010376
0.0137329	0.000610352	0.0143433
0.0161743	0.00213623	0.0183105
0.0183105	0.00305176	0.0213623
0.0201416	0.00366211	0.0238037
0.0210571	0.00366211	0.0247192
0.0213623	0.00427246	0.0256348
0.0213623	0.00549316	0.0268555
0.0219727	0.00671387	0.0286865
0.0234985	0.00732422	0.0308228
0.0250244	0.00793457	0.032959
0.0268555	0.00823975	0.0350952
0.0286865	0.00762939	0.0363159
0.0308228	0.00549316	0.0363159
0.0326538	0.00305176	0.0357056
0.0335693	0	0.0335693
0.0341797	-0.00518799	0.0289917
0.0344849	-0.0119019	0.022583
0.0341797	-0.0192261	0.0149536
0.032959	-0.0262451	0.00671387
0.0311279	-0.032959	-0.00183105
0.0283813	-0.038147	-0.00976563
0.0253296	-0.0418091	-0.0164795
0.0219727	-0.043335	-0.0213623
0.0180054	-0.0421143	-0.0241089
0.0143433	-0.0390625	-0.0247192
0.0100708	-0.0338745	-0.0238037
0.00610352	-0.0274658	-0.0213623
0.00213623	-0.0210571	-0.0189209
-0.00183105	-0.0146484	-0.0164795
-0.00610352	-0.00854492	-0.0146484
-0.010376	-0.00335693	-0.0137329
-0.0152588	0.000610352	-0.0146484
-0.0192261	0.00335693	-0.0158691
-0.022583	0.00488281	-0.0177002
-0.0256348	0.00549316	-0.0201416
-0.0283813	0.00579834	-0.022583
-0.0302124	0.00579834	-0.0244141
-0.0308228	0.00518799	-0.0256348
-0.0305176	0.00427246	-0.0262451
-0.0296021	0.00305176	-0.0265503
-0.027771	0.00183105	-0.0259399
-0.0250244	0.000915527	-0.0241089
-0.0219727	0	-0.0219727
-0.0186157	-0.000610352	-0.0192261
-0.0158691	-0.000610352	-0.0164795
-0.0137329	-0.000305176	-0.0140381
-0.012207	0	-0.012207
-0.0112915	0	-0.0112915
-0.0106812	0.000305176	-0.010376
-0.0109863	0.0012207	-0.00976563
-0.012207	0.00427246	-0.00793457
-0.0149536	0.010376	-0.00457764
-0.0186157	0.0195313	0.000915527
-0.0222778	0.0296021	0.00732422
-0.0244141	0.038147	0.0137329
-0.0244141	0.0445557	0.0201416
-0.0216675	0.0491333	0.0274658
-0.0161743	0.0515747	0.0354004
-0.00732422	0.0506592	0.043335
0.00610352	0.0427246	0.0488281
0.0241089	0.0280762	0.0521851
0.0457764	0.0088501	0.0546265
0.0689697	-0.0128174	0.0561523
0.0918579	-0.0332642	0.0585938
0.113525	-0.0509644	0.062561
0.131836	-0.0637817	0.0680542
0.144653	-0.067749	0.0769043
0.149536	-0.0610352	0.088501
0.146484	-0.045166	0.101318
0.135193	-0.0231934	0.112
0.116882	0.00183105	0.118713
0.093689	0.0250244	0.118713
0.0680542	0.0411987	0.109253
0.043335	0.0454712	0.0888062
0.020752	0.0375366	0.0582886
0.00213623	0.0195313	0.0216675
-0.012207	-0.00732422	-0.0195313
-0.0216675	-0.0396729	-0.0613403
-0.0271606	-0.0738525	-0.101013
-0.0302124	-0.103149	-0.133362
-0.0317383	-0.123901	-0.15564
-0.0317383	-0.134277	-0.166016
-0.0317383	-0.132751	-0.16449
-0.032959	-0.120239	-0.153198
-0.0354004	-0.0991821	-0.134583
-0.0390625	-0.0726318	-0.111694
-0.0427246	-0.0448608	-0.0875854
-0.0457764	-0.0198364	-0.0656128
-0.0476074	-0.000610352	-0.0482178
-0.0476074	0.0115967	-0.0360107
-0.0454712	0.0167847	-0.0286865
-0.0415039	0.015564	-0.0259399
-0.0363159	0.010376	-0.0259399
-0.0314331	0.00396729	-0.0274658
-0.0268555	-0.0012207	-0.0280762
-0.0234985	-0.00427246	-0.027771
-0.020752	-0.00579834	-0.0265503
-0.0186157	-0.00579834	-0.0244141
-0.0170898	-0.00488281	-0.0219727
-0.0164795	-0.00335693	-0.0198364
-0.0167847	-0.0012207	-0.0180054
-0.0170898	0.000305176	-0.0167847
-0.0177002	0.000610352	-0.0170898
-0.0180054	-0.000305176	-0.0183105
-0.0180054	-0.00183105	-0.0198364
-0.0180054	-0.00305176	-0.0210571
-0.0183105	-0.00366211	-0.0219727
-0.0180054	-0.00427246	-0.0222778
-0.017395	-0.00579834	-0.0231934
-0.0158691	-0.00732422	-0.0231934
-0.0140381	-0.00823975	-0.0222778
-0.012207	-0.00793457	-0.0201416
-0.0112915	-0.00701904	-0.0183105
-0.0109863	-0.00579834	-0.0167847
-0.0106812	-0.00457764	-0.0152588
-0.0106812	-0.00396729	-0.0146484
-0.0106812	-0.00366211	-0.0143433
-0.0106812	-0.00396729	-0.0146484
-0.0112915	-0.00366211	-0.0149536
-0.0125122	-0.00335693	-0.0158691
-0.0140381	-0.00305176	-0.0170898
-0.015564	-0.00335693	-0.0189209
-0.0167847	-0.00396729	-0.020752
-0.017395	-0.00488281	-0.0222778
-0.0170898	-0.00518799	-0.0222778
-0.0170898	-0.00518799	-0.0222778
-0.0164795	-0.00457764	-0.0210571
-0.0152588	-0.00457764	-0.0198364
-0.0128174	-0.00457764	-0.017395
-0.0100708	-0.00518799	-0.0152588
-0.00793457	-0.00518799	-0.0131226
-0.00732422	-0.00488281	-0.012207
-0.00671387	-0.00457764	-0.0112915
-0.00579834	-0.00549316	-0.0112915
-0.00488281	-0.00640869	-0.0112915
-0.00427246	-0.00701904	-0.0112915
-0.00427246	-0.00732422	-0.0115967
-0.00457764	-0.00732422	-0.0119019
-0.00549316	-0.00671387	-0.012207
-0.00640869	-0.00549316	-0.0119019
-0.00671387	-0.00457764	-0.0112915
-0.00640869	-0.00427246	-0.0106812
-0.00579834	-0.00427246	-0.0100708
-0.00518799	-0.00427246	-0.00946045
-0.00488281	-0.00396729	-0.0088501
-0.00427246	-0.00457764	-0.0088501
-0.00305176	-0.00640869	-0.00946045
-0.00152588	-0.0088501	-0.010376
0	-0.0112915	-0.0112915
0.0012207	-0.0128174	-0.0115967
0.00274658	-0.0137329	-0.0109863
0.00427246	-0.0143433	-0.0100708
0.00671387	-0.0143433	-0.00762939
0.00915527	-0.0137329	-0.00457764
0.0109863	-0.012207	-0.0012207
0.0125122	-0.0106812	0.00183105
0.0137329	-0.0100708	0.00366211
0.0149536	-0.0100708	0.00488281
0.015564	-0.0106812	0.00488281
0.0158691	-0.0115967	0.00427246
0.0167847	-0.0128174	0.00396729
0.0177002	-0.0149536	0.00274658
0.0183105	-0.0177002	0.000610352
0.0183105	-0.020752	-0.00244141
0.0186157	-0.0241089	-0.00549316
0.0195313	-0.0268555	-0.00732422
0.020752	-0.0289917	-0.00823975
0.0219727	-0.0292969	-0.00732422
0.0234985	-0.0292969	-0.00579834
0.0256348	-0.0289917	-0.00335693
0.0280762	-0.0289917	-0.000915527
0.0305176	-0.0292969	0.0012207
0.0323486	-0.0299072	0.00244141
0.0338745	-0.0302124	0.00366211
0.0354004	-0.0299072	0.00549316
0.0366211	-0.0299072	0.00671387
0.0375366	-0.0302124	0.00732422
0.0378418	-0.0308228	0.00701904
0.038147	-0.0317383	0.00640869
0.0378418	-0.032959	0.00488281
0.0375366	-0.0341797	0.00335693
0.0375366	-0.0357056	0.00183105
0.0369263	-0.0372314	-0.000305176
0.0366211	-0.0384521	-0.00183105
0.0363159	-0.0396729	-0.00335693
0.0363159	-0.0418091	-0.00549316
0.0363159	-0.0439453	-0.00762939
0.0363159	-0.0463867	-0.0100708
0.0360107	-0.0485229	-0.0125122
0.0363159	-0.050354	-0.0140381
0.0363159	-0.0512695	-0.0149536
0.0357056	-0.0509644	-0.0152588
0.0344849	-0.0497437	-0.0152588
0.0332642	-0.0479126	-0.0146484
0.0317383	-0.0460815	-0.0143433
0.0302124	-0.0442505	-0.0140381
0.0280762	-0.0418091	-0.0137329
0.0253296	-0.0393677	-0.0140381
0.0222778	-0.0363159	-0.0140381
0.0192261	-0.0332642	-0.0140381
0.0158691	-0.0302124	-0.0143433
0.0125122	-0.0268555	-0.0143433
0.0088501	-0.0234985	-0.0146484
0.00488281	-0.0195313	-0.0146484
0.0012207	-0.0152588	-0.0140381
-0.00244141	-0.0109863	-0.0134277
-0.00640869	-0.00610352	-0.0125122
-0.010376	-0.00152588	-0.0119019
-0.0137329	0.00152588	-0.012207
-0.0167847	0.00427246	-0.0125122
-0.0189209	0.00640869	-0.0125122
-0.0204468	0.00762939	-0.0128174
-0.0213623	0.00732422	-0.0140381
-0.0213623	0.00610352	-0.0152588
-0.0213623	0.00518799	-0.0161743
-0.0213623	0.00457764	-0.0167847
-0.020752	0.00396729	-0.0167847
-0.0204468	0.00366211	-0.0167847
-0.020752	0.00305176	-0.0177002
-0.0216675	0.00274658	-0.0189209
-0.0234985	0.00274658	-0.020752
-0.0256348	0.00213623	-0.0234985
-0.027771	0.0012207	-0.0265503
-0.0296021	0.0012207	-0.0283813
-0.0311279	0.00213623	-0.0289917
-0.0317383	0.00427246	-0.0274658
-0.0314331	0.00610352	-0.0253296
-0.0308228	0.00823975	-0.022583
-0.0302124	0.0106812	-0.0195313
-0.0296021	0.0134277	-0.0161743
-0.0289917	0.0158691	-0.0131226
-0.0280762	0.0180054	-0.0100708
-0.0274658	0.020752	-0.00671387
-0.0268555	0.022583	-0.00427246
-0.0265503	0.0222778	-0.00427246
-0.0262451	0.0204468	-0.00579834
-0.0259399	0.017395	-0.00854492
-0.0253296	0.0137329	-0.0115967
-0.0247192	0.0109863	-0.0137329
-0.0241089	0.0088501	-0.0152588
-0.0228882	0.00701904	-0.0158691
-0.0213623	0.00549316	-0.0158691
-0.0192261	0.00457764	-0.0146484
-0.0170898	0.00366211	-0.0134277
-0.015564	0.00305176	-0.0125122
-0.0143433	0.00274658	-0.0115967
-0.0128174	0.00244141	-0.010376
-0.0106812	0.00183105	-0.0088501
-0.00823975	0.000305176	-0.00793457
-0.00610352	-0.0012207	-0.00732422
-0.00549316	-0.00213623	-0.00762939
-0.00610352	-0.00152588	-0.00762939
-0.00732422	-0.000915527	-0.00823975
-0.00854492	-0.000305176	-0.0088501
-0.00976563	0	-0.00976563
-0.0115967	0.000610352	-0.0109863
-0.0134277	0.0012207	-0.012207
-0.0152588	0.00183105	-0.0134277
-0.0164795	0.0012207	-0.0152588
-0.017395	0.000610352	-0.0167847
-0.0170898	-0.000305176	-0.017395
-0.0167847	-0.0012207	-0.0180054
-0.0161743	-0.00183105	-0.0180054
-0.015564	-0.00244141	-0.0180054
-0.0149536	-0.00274658	-0.0177002
-0.0140381	-0.00305176	-0.0170898
-0.0134277	-0.00274658	-0.0161743
-0.0134277	-0.00213623	-0.015564
-0.0134277	-0.000915527	-0.0143433
-0.0131226	0.000305176	-0.0128174
-0.012207	0	-0.012207
-0.0115967	-0.000610352	-0.012207
-0.0112915	-0.000915527	-0.012207
-0.0109863	-0.000915527	-0.0119019
-0.0106812	-0.000610352	-0.0112915
-0.010376	-0.000610352	-0.0109863
-0.00946045	-0.000915527	-0.010376
-0.00915527	-0.0012207	-0.010376
-0.00854492	-0.00152588	-0.0100708
-0.0088501	-0.000915527	-0.00976563
-0.0088501	0	-0.0088501
-0.0088501	0.000610352	-0.00823975
-0.0088501	0.000305176	-0.00854492
-0.00854492	-0.000610352	-0.00915527
-0.00854492	-0.000305176	-0.0088501
-0.0088501	0	-0.0088501
-0.00946045	0.000610352	-0.0088501
-0.010376	0.000915527	-0.00946045
-0.0109863	0.0012207	-0.00976563
-0.0112915	0.00152588	-0.00976563
-0.0119019	0.00152588	-0.010376
-0.0115967	0.0012207	-0.010376
-0.0109863	0.000915527	-0.0100708
-0.00946045	0.000610352	-0.0088501
-0.00732422	0.000305176	-0.00701904
-0.00579834	0.000305176	-0.00549316
-0.00427246	-0.000305176	-0.00457764
-0.00305176	-0.000610352	-0.00366211
-0.00274658	-0.000610352	-0.00335693
-0.00274658	0.000305176	-0.00244141
-0.00305176	0.0012207	-0.00183105
-0.00335693	0.00213623	-0.0012207
-0.00396729	0.00274658	-0.0012207
-0.00488281	0.00335693	-0.00152588
-0.00579834	0.00305176	-0.00274658
-0.00610352	0.00244141	-0.00366211
-0.00518799	0.0012207	-0.00396729
-0.00366211	0	-0.00366211
-0.00213623	-0.000610352	-0.00274658
-0.0012207	-0.000915527	-0.00213623
-0.000915527	-0.00152588	-0.00244141
-0.000610352	-0.00213623	-0.00274658
-0.000610352	-0.00152588	-0.00213623
-0.000305176	-0.000610352	-0.000915527
0	0.000610352	0.000610352
0	0.00213623	0.00213623
-0.000610352	0.00335693	0.00274658
-0.00183105	0.00427246	0.00244141
-0.00305176	0.00518799	0.00213623
-0.00396729	0.00549316	0.00152588
-0.00396729	0.00488281	0.000915527
-0.00366211	0.00396729	0.000305176
-0.00396729	0.00366211	-0.000305176
-0.00457764	0.00366211	-0.000915527
-0.00549316	0.00396729	-0.00152588
-0.00579834	0.00396729	-0.00183105
-0.00549316	0.00274658	-0.00274658
-0.00457764	0.00183105	-0.00274658
-0.00366211	0.00152588	-0.00213623
-0.00305176	0.00183105	-0.0012207
-0.00274658	0.00213623	-0.000610352
-0.00244141	0.00213623	-0.000305176
-0.00274658	0.00213623	-0.000610352
-0.00427246	0.00335693	-0.000915527
-0.00579834	0.00488281	-0.000915527
-0.00640869	0.00640869	0
-0.00671387	0.00762939	0.000915527
-0.00762939	0.0100708	0.00244141
-0.0088501	0.0131226	0.00427246
-0.00976563	0.0161743	0.00640869
-0.00946045	0.0177002	0.00823975
-0.00854492	0.0170898	0.00854492
-0.00640869	0.0146484	0.00823975
-0.00366211	0.0106812	0.00701904
-0.000915527	0.00640869	0.00549316
0.00152588	0.00183105	0.00335693
0.00335693	-0.00213623	0.0012207
0.00457764	-0.00640869	-0.00183105
0.00549316	-0.0106812	-0.00518799
0.00549316	-0.0140381	-0.00854492
0.00457764	-0.0161743	-0.0115967
0.00305176	-0.0164795	-0.0134277
0.000610352	-0.0149536	-0.0143433
-0.00274658	-0.012207	-0.0149536
-0.00579834	-0.00915527	-0.0149536
-0.00793457	-0.00640869	-0.0143433
-0.0088501	-0.00427246	-0.0131226
-0.00915527	-0.00244141	-0.0115967
-0.0088501	-0.00152588	-0.010376
-0.00793457	-0.0012207	-0.00915527
-0.00671387	-0.000915527	-0.00762939
-0.00579834	-0.000610352	-0.00640869
-0.00549316	-0.000305176	-0.00579834
-0.00579834	-0.000915527	-0.00671387
-0.00549316	-0.00152588	-0.00701904
-0.00488281	-0.00183105	-0.00671387
-0.00457764	-0.00183105	-0.00640869
-0.00427246	-0.00244141	-0.00671387
-0.00457764	-0.00274658	-0.00732422
-0.00488281	-0.00244141	-0.00732422
-0.00457764	-0.00213623	-0.00671387
-0.00335693	-0.00213623	-0.00549316
-0.00183105	-0.00274658	-0.00457764
-0.000305176	-0.00305176	-0.00335693
0.000915527	-0.00366211	-0.00274658
0.00183105	-0.00396729	-0.00213623
0.00152588	-0.00396729	-0.00244141
0.0012207	-0.00427246	-0.00305176
0.000610352	-0.00488281	-0.00427246
-0.000305176	-0.00579834	-0.00610352
-0.000915527	-0.00671387	-0.00762939
-0.00152588	-0.00793457	-0.00946045
-0.00244141	-0.0088501	-0.0112915
-0.00305176	-0.00915527	-0.012207
-0.00305176	-0.00915527	-0.012207
-0.00244141	-0.0088501	-0.0112915
-0.00213623	-0.00762939	-0.00976563
-0.00213623	-0.00579834	-0.00793457
-0.00183105	-0.00366211	-0.00549316
-0.00152588	-0.00213623	-0.00366211
-0.000610352	-0.000915527	-0.00152588
0	-0.000610352	-0.000610352
0.000610352	-0.000915527	-0.000305176
0.0012207	-0.00152588	-0.000305176
0.00152588	-0.00274658	-0.0012207
0.00183105	-0.00427246	-0.00244141
0.00183105	-0.00518799	-0.00335693
0.00152588	-0.00610352	-0.00457764
0.000915527	-0.00640869	-0.00549316
0	-0.00610352	-0.00610352
-0.000610352	-0.00549316	-0.00610352
-0.000915527	-0.00457764	-0.00549316
-0.000610352	-0.00366211	-0.00427246
0	-0.00274658	-0.00274658
0.000610352	-0.00244141	-0.00183105
0.00152588	-0.00274658	-0.0012207
0.00244141	-0.00427246	-0.00183105
0.00335693	-0.00549316	-0.00213623
0.00366211	-0.00701904	-0.00335693
0.00427246	-0.00762939	-0.00335693
0.00488281	-0.00823975	-0.00335693
0.00549316	-0.00854492	-0.00305176
0.00549316	-0.00762939	-0.00213623
0.00518799	-0.00640869	-0.0012207
0.00457764	-0.00427246	0.000305176
0.00488281	-0.00213623	0.00274658
0.00549316	-0.000305176	0.00518799
0.00640869	0.000915527	0.00732422
0.00701904	0.00213623	0.00915527
0.00701904	0.00274658	0.00976563
0.00701904	0.00335693	0.010376
0.00732422	0.00335693	0.0106812
0.00762939	0.00244141	0.0100708
0.00762939	0.000610352	0.00823975
0.00793457	-0.0012207	0.00671387
0.00854492	-0.00274658	0.00579834
0.00915527	-0.00366211	0.00549316
0.00946045	-0.00335693	0.00610352
0.00976563	-0.00244141	0.00732422
0.00976563	-0.00152588	0.00823975
0.0100708	-0.00152588	0.00854492
0.010376	-0.00152588	0.0088501
0.0100708	-0.0012207	0.0088501
0.0088501	-0.000610352	0.00823975
0.00732422	-0.000305176	0.00701904
0.00671387	-0.000610352	0.00610352
0.00671387	-0.00152588	0.00518799
0.00732422	-0.00213623	0.00518799
0.0088501	-0.00305176	0.00579834
0.0112915	-0.00427246	0.00701904
0.0140381	-0.00610352	0.00793457
0.017395	-0.00793457	0.00946045
0.0216675	-0.00854492	0.0131226
0.0250244	-0.00732422	0.0177002
0.0280762	-0.00518799	0.0228882
0.0302124	-0.00305176	0.0271606
0.0320435	-0.00183105	0.0302124
0.0338745	-0.000610352	0.0332642
0.0350952	0.0012207	0.0363159
0.0360107	0.00335693	0.0393677
0.0369263	0.00518799	0.0421143
0.0372314	0.00671387	0.0439453
0.0375366	0.00823975	0.0457764
0.0378418	0.00946045	0.0473022
0.0378418	0.00976563	0.0476074
0.0384521	0.00915527	0.0476074
0.0393677	0.00793457	0.0473022
0.039978	0.00640869	0.0463867
0.0405884	0.00335693	0.0439453
0.0408936	-0.00213623	0.0387573
0.0411987	-0.0088501	0.0323486
0.0418091	-0.0161743	0.0256348
0.0430298	-0.0238037	0.0192261
0.0445557	-0.0311279	0.0134277
0.0454712	-0.0372314	0.00823975
0.045166	-0.0415039	0.00366211
0.0436401	-0.043335	0.000305176
0.0411987	-0.0427246	-0.00152588
0.0375366	-0.0393677	-0.00183105
0.032959	-0.0338745	-0.000915527
0.027771	-0.0271606	0.000610352
0.0222778	-0.0195313	0.00274658
0.0164795	-0.012207	0.00427246
0.010376	-0.00488281	0.00549316
0.00488281	0.000915527	0.00579834
-0.000305176	0.00488281	0.00457764
-0.00488281	0.00732422	0.00244141
-0.00823975	0.00823975	0
-0.010376	0.00854492	-0.00183105
-0.012207	0.00823975	-0.00396729
-0.0131226	0.00793457	-0.00518799
-0.0137329	0.00793457	-0.00579834
-0.0134277	0.00823975	-0.00518799
-0.0125122	0.00854492	-0.00396729
-0.0109863	0.00915527	-0.00183105
-0.00854492	0.00915527	0.000610352
-0.00488281	0.00854492	0.00366211
-0.000915527	0.00701904	0.00610352
0.00305176	0.00488281	0.00793457
0.00640869	0.00305176	0.00946045
0.0088501	0.00152588	0.010376
0.0100708	0.000610352	0.0106812
0.010376	0.000610352	0.0109863
0.00946045	0.00183105	0.0112915
0.00762939	0.00518799	0.0128174
0.00457764	0.0112915	0.0158691
0.000610352	0.020752	0.0213623
-0.00396729	0.0320435	0.0280762
-0.00762939	0.0427246	0.0350952
-0.00915527	0.0509644	0.0418091
-0.00793457	0.0561523	0.0482178
-0.00305176	0.0576782	0.0546265
0.00518799	0.0546265	0.0598145
0.017395	0.0454712	0.0628662
0.0332642	0.0302124	0.0634766
0.0524902	0.00946045	0.0619507
0.0747681	-0.0143433	0.0604248
0.0979614	-0.038147	0.0598145
0.121765	-0.0604248	0.0613403
0.142822	-0.0769043	0.065918
0.158691	-0.083313	0.0753784
0.166931	-0.0775146	0.0894165
0.166931	-0.0616455	0.105286
0.159302	-0.0372314	0.12207
0.143433	-0.00640869	0.137024
0.12085	0.0253296	0.146179
0.0939941	0.0515747	0.145569
0.0656128	0.0671387	0.132751
0.0378418	0.0708008	0.108643
0.0131226	0.0622559	0.0753784
-0.00732422	0.0436401	0.0363159
-0.0228882	0.0158691	-0.00701904
-0.0326538	-0.0170898	-0.0497437
-0.0369263	-0.050354	-0.0872803
-0.0369263	-0.0790405	-0.115967
-0.0341797	-0.0997925	-0.133972
-0.0308228	-0.109863	-0.140686
-0.0280762	-0.108337	-0.136414
-0.0262451	-0.0964355	-0.122681
-0.0256348	-0.0775146	-0.103149
-0.0262451	-0.0549316	-0.0811768
-0.0280762	-0.0326538	-0.06073
-0.0305176	-0.0131226	-0.0436401
-0.0326538	0.000915527	-0.0317383
-0.0335693	0.0088501	-0.0247192
-0.0335693	0.0119019	-0.0216675
-0.0323486	0.0109863	-0.0213623
-0.0305176	0.00823975	-0.0222778
-0.027771	0.00518799	-0.022583
-0.0244141	0.00152588	-0.0228882
-0.0210571	-0.00152588	-0.022583
-0.0183105	-0.00335693	-0.0216675
-0.0164795	-0.00427246	-0.020752
-0.0149536	-0.00427246	-0.0192261
-0.0134277	-0.00427246	-0.0177002
-0.0115967	-0.00488281	-0.0164795
-0.010376	-0.00671387	-0.0170898
-0.0100708	-0.00823975	-0.0183105
-0.0109863	-0.0088501	-0.0198364
-0.0125122	-0.0088501	-0.0213623
-0.0137329	-0.0088501	-0.022583
-0.0143433	-0.0088501	-0.0231934
-0.0152588	-0.00823975	-0.0234985
-0.0158691	-0.00762939	-0.0234985
-0.0164795	-0.00671387	-0.0231934
-0.0167847	-0.00640869	-0.0231934
-0.0164795	-0.00610352	-0.022583
-0.0161743	-0.00488281	-0.0210571
-0.0158691	-0.00305176	-0.0189209
-0.0158691	-0.00183105	-0.0177002
-0.0152588	-0.00152588	-0.0167847
-0.0146484	-0.0012207	-0.0158691
-0.0137329	-0.0012207	-0.0149536
-0.0131226	-0.0012207	-0.0143433
-0.0131226	-0.000610352	-0.0137329
-0.0128174	0	-0.0128174
-0.0119019	-0.000610352	-0.0125122
-0.0100708	-0.00213623	-0.012207
-0.00823975	-0.00335693	-0.0115967
-0.00701904	-0.00457764	-0.0115967
-0.00579834	-0.00579834	-0.0115967
-0.00457764	-0.00640869	-0.0109863
-0.00366211	-0.00701904	-0.0106812
-0.00335693	-0.00732422	-0.0106812
-0.00335693	-0.00671387	-0.0100708
-0.00366211	-0.00610352	-0.00976563
-0.00396729	-0.00579834	-0.00976563
-0.00457764	-0.00518799	-0.00976563
-0.00488281	-0.00396729	-0.0088501
-0.00518799	-0.00274658	-0.00793457
-0.00488281	-0.00213623	-0.00701904
-0.00427246	-0.00244141	-0.00671387
-0.00335693	-0.00335693	-0.00671387
-0.00213623	-0.00457764	-0.00671387
-0.000915527	-0.00610352	-0.00701904
-0.000610352	-0.00732422	-0.00793457
-0.000305176	-0.00793457	-0.00823975
0.000305176	-0.00854492	-0.00823975
0.000915527	-0.00946045	-0.00854492
0.0012207	-0.0106812	-0.00946045
0.0012207	-0.0119019	-0.0106812
0.000915527	-0.0128174	-0.0119019
0.000305176	-0.0128174	-0.0125122
-0.000305176	-0.0119019	-0.012207
-0.000305176	-0.0115967	-0.0119019
0	-0.0115967	-0.0115967
0.000305176	-0.0112915	-0.0109863
0.0012207	-0.0112915	-0.0100708
0.00213623	-0.0115967	-0.00946045
0.00335693	-0.0115967	-0.00823975
0.00457764	-0.012207	-0.00762939
0.00610352	-0.0134277	-0.00732422
0.00793457	-0.0158691	-0.00793457
0.00976563	-0.0180054	-0.00823975
0.0115967	-0.0198364	-0.00823975
0.0134277	-0.020752	-0.00732422
0.0149536	-0.0219727	-0.00701904
0.0167847	-0.0234985	-0.00671387
0.0183105	-0.0250244	-0.00671387
0.0192261	-0.0262451	-0.00701904
0.0195313	-0.0268555	-0.00732422
0.0198364	-0.027771	-0.00793457
0.0204468	-0.0283813	-0.00793457
0.0210571	-0.0289917	-0.00793457
0.0216675	-0.0296021	-0.00793457
0.0228882	-0.0308228	-0.00793457
0.0241089	-0.0320435	-0.00793457
0.0253296	-0.0332642	-0.00793457
0.0256348	-0.03479	-0.00915527
0.0265503	-0.0360107	-0.00946045
0.027771	-0.0378418	-0.0100708
0.0299072	-0.039978	-0.0100708
0.0320435	-0.0411987	-0.00915527
0.0335693	-0.0427246	-0.00915527
0.0354004	-0.0445557	-0.00915527
0.0369263	-0.0466919	-0.00976563
0.0384521	-0.0482178	-0.00976563
0.0393677	-0.0488281	-0.00946045
0.0396729	-0.0488281	-0.00915527
0.0393677	-0.0485229	-0.00915527
0.0390625	-0.0479126	-0.0088501
0.0387573	-0.0469971	-0.00823975
0.038147	-0.0457764	-0.00762939
0.0372314	-0.0445557	-0.00732422
0.0366211	-0.0436401	-0.00701904
0.0363159	-0.0430298	-0.00671387
0.0366211	-0.0430298	-0.00640869
0.0369263	-0.0436401	-0.00671387
0.0375366	-0.0436401	-0.00610352
0.0375366	-0.0427246	-0.00518799
0.0375366	-0.0415039	-0.00396729
0.0366211	-0.0396729	-0.00305176
0.03479	-0.0369263	-0.00213623
0.0326538	-0.0332642	-0.000610352
0.0302124	-0.0296021	0.000610352
0.0274658	-0.0256348	0.00183105
0.0244141	-0.0213623	0.00305176
0.0213623	-0.0170898	0.00427246
0.0177002	-0.012207	0.00549316
0.0140381	-0.00732422	0.00671387
0.00976563	-0.00213623	0.00762939
0.00518799	0.00244141	0.00762939
0.000915527	0.00732422	0.00823975
-0.00335693	0.0115967	0.00823975
-0.00732422	0.015564	0.00823975
-0.0106812	0.0186157	0.00793457
-0.0137329	0.0216675	0.00793457
-0.0164795	0.0238037	0.00732422
-0.0180054	0.0244141	0.00640869
-0.0186157	0.0234985	0.00488281
-0.0195313	0.022583	0.00305176
-0.0201416	0.022583	0.00244141
-0.0210571	0.022583	0.00152588
-0.0219727	0.0222778	0.000305176
-0.022583	0.0216675	-0.000915527
-0.0234985	0.0210571	-0.00244141
-0.0244141	0.020752	-0.00366211
-0.0256348	0.0216675	-0.00396729
-0.0265503	0.0222778	-0.00427246
-0.0274658	0.0222778	-0.00518799
-0.0283813	0.0216675	-0.00671387
-0.0289917	0.020752	-0.00823975
-0.0292969	0.0198364	-0.00946045
-0.0292969	0.0186157	-0.0106812
-0.0299072	0.0177002	-0.012207
-0.0308228	0.0167847	-0.0140381
-0.0317383	0.015564	-0.0161743
-0.0323486	0.0143433	-0.0180054
-0.0323486	0.0128174	-0.0195313
-0.0317383	0.0115967	-0.0201416
-0.0302124	0.010376	-0.0198364
-0.0283813	0.00946045	-0.0189209
-0.0265503	0.0088501	-0.0177002
-0.0244141	0.00854492	-0.0158691
-0.0219727	0.00854492	-0.0134277
-0.0198364	0.00915527	-0.0106812
-0.0183105	0.010376	-0.00793457
-0.0170898	0.0112915	-0.00579834
-0.0164795	0.0125122	-0.00396729
-0.0161743	0.0140381	-0.00213623
-0.0170898	0.015564	-0.00152588
-0.0183105	0.0170898	-0.0012207
-0.0198364	0.0183105	-0.00152588
-0.0210571	0.0186157	-0.00244141
-0.0222778	0.0177002	-0.00457764
-0.0231934	0.015564	-0.00762939
-0.0238037	0.0128174	-0.0109863
-0.0238037	0.0100708	-0.0137329
-0.0234985	0.00793457	-0.015564
-0.0222778	0.00640869	-0.0158691
-0.0213623	0.00488281	-0.0164795
-0.0204468	0.00335693	-0.0170898
-0.0198364	0.00213623	-0.0177002
-0.0192261	0.00183105	-0.017395
-0.0189209	0.00274658	-0.0161743
-0.0186157	0.00396729	-0.0146484
-0.0180054	0.00549316	-0.0125122
-0.0180054	0.00701904	-0.0109863
-0.0183105	0.00854492	-0.00976563
-0.0189209	0.00976563	-0.00915527
-0.0192261	0.0100708	-0.00915527
-0.0189209	0.00976563	-0.00915527
-0.0183105	0.00915527	-0.00915527
-0.017395	0.00823975	-0.00915527
-0.0161743	0.00732422	-0.0088501
-0.0152588	0.00610352	-0.00915527
-0.0146484	0.00488281	-0.00976563
-0.0140381	0.00366211	-0.010376
-0.0140381	0.00274658	-0.0112915
-0.0146484	0.00244141	-0.012207
-0.0146484	0.00213623	-0.0125122
-0.0134277	0.00152588	-0.0119019
-0.0119019	0.000915527	-0.0109863
-0.0109863	0.000915527	-0.0100708
-0.010376	0.00152588	-0.0088501
-0.00946045	0.00152588	-0.00793457
-0.00793457	0.00183105	-0.00610352
-0.00671387	0.00305176	-0.00366211
-0.00610352	0.00366211	-0.00244141
-0.00610352	0.00427246	-0.00183105
-0.00671387	0.00427246	-0.00244141
-0.00701904	0.00396729	-0.00305176
-0.00762939	0.00366211	-0.00396729
-0.0088501	0.00366211	-0.00518799
-0.00976563	0.00396729	-0.00579834
-0.0106812	0.00366211	-0.00701904
-0.0106812	0.00305176	-0.00762939
-0.00976563	0.00183105	-0.00793457
-0.00823975	0	-0.00823975
-0.00671387	-0.000305176	-0.00701904
-0.00610352	0.00152588	-0.00457764
-0.00610352	0.00427246	-0.00183105
-0.00640869	0.00671387	0.000305176
-0.00732422	0.00823975	0.000915527
-0.00793457	0.0088501	0.000915527
-0.00854492	0.00915527	0.000610352
-0.00915527	0.00976563	0.000610352
-0.00976563	0.00976563	0
-0.0100708	0.00854492	-0.00152588
-0.00976563	0.00640869	-0.00335693
-0.00946045	0.00457764	-0.00488281
-0.00915527	0.00274658	-0.00640869
-0.00854492	0.0012207	-0.00732422
-0.00732422	0	-0.00732422
-0.00610352	-0.000305176	-0.00640869
-0.00488281	-0.000305176	-0.00518799
-0.00427246	0.000610352	-0.00366211
-0.00396729	0.00183105	-0.00213623
-0.00366211	0.00335693	-0.000305176
-0.00305176	0.00427246	0.0012207
-0.00213623	0.00457764	0.00244141
-0.00183105	0.00396729	0.00213623
-0.00213623	0.00305176	0.000915527
-0.00213623	0.0012207	-0.000915527
-0.00152588	-0.0012207	-0.00274658
-0.000610352	-0.00305176	-0.00366211
0	-0.00427246	-0.00427246
0	-0.00488281	-0.00488281
-0.000305176	-0.00518799	-0.00549316
-0.000915527	-0.00549316	-0.00640869
-0.0012207	-0.00579834	-0.00701904
-0.00152588	-0.00610352	-0.00762939
-0.00183105	-0.00579834	-0.00762939
-0.00274658	-0.00518799	-0.00793457
-0.00396729	-0.00366211	-0.00762939
-0.00610352	-0.00244141	-0.00854492
-0.00732422	-0.000915527	-0.00823975
-0.00823975	-0.000305176	-0.00854492
-0.00823975	0.000305176	-0.00793457
-0.00854492	0.000610352	-0.00793457
-0.00823975	0.0012207	-0.00701904
-0.00762939	0.00183105	-0.00579834
-0.00640869	0.00213623	-0.00427246
-0.00518799	0.00183105	-0.00335693
-0.00396729	0.000915527	-0.00305176
-0.00305176	-0.000305176	-0.00335693
-0.00213623	-0.0012207	-0.00335693
-0.0012207	-0.00213623	-0.00335693
0	-0.00335693	-0.00335693
0.000610352	-0.00457764	-0.00396729
0.000610352	-0.00518799	-0.00457764
0.000610352	-0.00549316	-0.00488281
0.000305176	-0.00549316	-0.00518799
0.000305176	-0.00549316	-0.00518799
0.000610352	-0.00518799	-0.00457764
0.000915527	-0.00488281	-0.00396729
0.000915527	-0.00396729	-0.00305176
0.000610352	-0.00244141	-0.00183105
0	-0.000915527	-0.000915527
-0.000610352	0.000305176	-0.000305176
-0.000915527	0.000915527	0
-0.000915527	0.00152588	0.000610352
-0.000610352	0.00183105	0.0012207
-0.000610352	0.00244141	0.00183105
-0.0012207	0.00274658	0.00152588
-0.00152588	0.00274658	0.0012207
-0.00152588	0.00213623	0.000610352
-0.0012207	0.00213623	0.000915527
-0.0012207	0.00183105	0.000610352
-0.0012207	0.00152588	0.000305176
-0.000610352	0.000305176	-0.000305176
0.000915527	-0.000610352	0.000305176
0.00244141	-0.000915527	0.00152588
0.00366211	-0.0012207	0.00244141
0.00549316	-0.00152588	0.00396729
0.00701904	-0.00183105	0.00518799
0.00762939	-0.00183105	0.00579834
0.00823975	-0.00152588	0.00671387
0.00854492	-0.00183105	0.00671387
0.0088501	-0.00244141	0.00640869
0.00854492	-0.00305176	0.00549316
0.00793457	-0.00335693	0.00457764
0.00701904	-0.00335693	0.00366211
0.00579834	-0.00305176	0.00274658
0.00427246	-0.00274658	0.00152588
0.00335693	-0.00244141	0.000915527
0.00335693	-0.00274658	0.000610352
0.00366211	-0.00274658	0.000915527
0.00427246	-0.00274658	0.00152588
0.00427246	-0.00213623	0.00213623
0.00396729	-0.00183105	0.00213623
0.00335693	-0.00152588	0.00183105
0.00305176	-0.00152588	0.00152588
0.00274658	-0.00152588	0.0012207
0.00183105	-0.00152588	0.000305176
0.000610352	-0.00152588	-0.000915527
-0.0012207	-0.000915527	-0.00213623
-0.00305176	0	-0.00305176
-0.00366211	0.000915527	-0.00274658
-0.00366211	0.00152588	-0.00213623
-0.00244141	0.00183105	-0.000610352
-0.00152588	0.00244141	0.000915527
-0.000610352	0.00305176	0.00244141
0.000305176	0.00305176	0.00335693
0.000915527	0.00244141	0.00335693
0.00152588	0.0012207	0.00274658
0.00152588	0.000915527	0.00244141
0.00152588	0.000915527	0.00244141
0.000915527	0.000305176	0.0012207
0.000610352	-0.000915527	-0.000305176
0.000305176	-0.00213623	-0.00183105
0.000305176	-0.00305176	-0.00274658
0.000610352	-0.00305176	-0.00244141
0.000915527	-0.00274658	-0.00183105
0.00244141	-0.00274658	-0.000305176
0.00457764	-0.00305176	0.00152588
0.00701904	-0.00305176	0.00396729
0.00946045	-0.00274658	0.00671387
0.012207	-0.00213623	0.0100708
0.0149536	-0.00183105	0.0131226
0.017395	-0.000610352	0.0167847
0.0195313	0.0012207	0.020752
0.020752	0.00427246	0.0250244
0.0216675	0.00701904	0.0286865
0.0222778	0.00946045	0.0317383
0.0231934	0.0119019	0.0350952
0.0241089	0.0143433	0.0384521
0.0244141	0.0170898	0.0415039
0.0247192	0.0195313	0.0442505
0.0250244	0.0219727	0.0469971
0.0253296	0.0238037	0.0491333
0.0259399	0.0247192	0.0506592
0.0265503	0.0241089	0.0506592
0.0271606	0.022583	0.0497437
0.027771	0.0204468	0.0482178
0.027771	0.0170898	0.0448608
0.027771	0.012207	0.039978
0.0280762	0.00518799	0.0332642
0.0289917	-0.00396729	0.0250244
0.0302124	-0.0128174	0.017395
0.0308228	-0.0204468	0.010376
0.0308228	-0.0271606	0.00366211
0.0308228	-0.0332642	-0.00244141
0.0305176	-0.0372314	-0.00671387
0.0296021	-0.0387573	-0.00915527
0.0280762	-0.0378418	-0.00976563
0.0253296	-0.0341797	-0.0088501
0.0216675	-0.0283813	-0.00671387
0.0161743	-0.0210571	-0.00488281
0.00946045	-0.0131226	-0.00366211
0.00213623	-0.00610352	-0.00396729
-0.00396729	-0.000915527	-0.00488281
-0.00976563	0.00366211	-0.00610352
-0.0149536	0.00671387	-0.00823975
-0.0192261	0.00823975	-0.0109863
-0.0213623	0.00823975	-0.0131226
-0.0222778	0.00793457	-0.0143433
-0.022583	0.00732422	-0.0152588
-0.0219727	0.00732422	-0.0146484
-0.0210571	0.00732422	-0.0137329
-0.0189209	0.00701904	-0.0119019
-0.0170898	0.00732422	-0.00976563
-0.015564	0.0088501	-0.00671387
-0.0143433	0.010376	-0.00396729
-0.0134277	0.0115967	-0.00183105
-0.0128174	0.0128174	0
-0.012207	0.0134277	0.0012207
-0.012207	0.0137329	0.00152588
-0.012207	0.0137329	0.00152588
-0.012207	0.0137329	0.00152588
-0.0125122	0.0134277	0.000915527
-0.0134277	0.0137329	0.000305176
-0.0146484	0.0161743	0.00152588
-0.0167847	0.020752	0.00396729
-0.0189209	0.0274658	0.00854492
-0.0210571	0.0366211	0.015564
-0.0228882	0.045166	0.0222778
-0.022583	0.0515747	0.0289917
-0.0195313	0.055542	0.0360107
-0.0137329	0.0567627	0.0430298
-0.00488281	0.0543213	0.0494385
0.00762939	0.0460815	0.0537109
0.0238037	0.0317383	0.055542
0.0436401	0.0112915	0.0549316
0.0668335	-0.012207	0.0546265
0.0915527	-0.0354004	0.0561523
0.115051	-0.055542	0.0595093
0.134888	-0.0686646	0.0662231
0.148926	-0.0704956	0.0784302
0.155029	-0.0588989	0.0961304
0.152893	-0.0350952	0.117798
0.141296	-0.000610352	0.140686
0.12146	0.0396729	0.161133
0.0952148	0.0796509	0.174866
0.0653076	0.113831	0.179138
0.0338745	0.137329	0.171204
0.00366211	0.14801	0.151672
-0.0228882	0.144348	0.12146
-0.0436401	0.126343	0.0827026
-0.057373	0.0952148	0.0378418
-0.0646973	0.0558472	-0.0088501
-0.065918	0.0131226	-0.0527954
-0.0628662	-0.027771	-0.0906372
-0.057373	-0.0613403	-0.118713
-0.0506592	-0.0836182	-0.134277
-0.0439453	-0.0942993	-0.138245
-0.038147	-0.0939941	-0.132141
-0.0332642	-0.0857544	-0.119019
-0.0302124	-0.0723267	-0.102539
-0.027771	-0.057373	-0.085144
-0.0256348	-0.0430298	-0.0686646
-0.0231934	-0.0302124	-0.0534058
-0.0210571	-0.0204468	-0.0415039
-0.0186157	-0.0143433	-0.032959
-0.0161743	-0.0115967	-0.027771
-0.0143433	-0.0109863	-0.0253296
-0.0125122	-0.0112915	-0.0238037
-0.0109863	-0.0119019	-0.0228882
-0.0100708	-0.0119019	-0.0219727
-0.00976563	-0.0112915	-0.0210571
-0.00946045	-0.0109863	-0.0204468
-0.00915527	-0.0112915	-0.0204468
-0.00854492	-0.0119019	-0.0204468
-0.00732422	-0.0128174	-0.0201416
-0.00671387	-0.0131226	-0.0198364
-0.00671387	-0.0137329	-0.0204468
-0.00579834	-0.0143433	-0.0201416
-0.00457764	-0.0146484	-0.0192261
-0.00335693	-0.0146484	-0.0180054
-0.00274658	-0.0140381	-0.0167847
-0.00244141	-0.0134277	-0.0158691
-0.00183105	-0.0128174	-0.0146484
-0.000915527	-0.0125122	-0.0134277
0.000305176	-0.0128174	-0.0125122
0.00183105	-0.0134277	-0.0115967
0.00335693	-0.0140381	-0.0106812
0.00457764	-0.0149536	-0.010376
0.00549316	-0.015564	-0.0100708
0.00579834	-0.0161743	-0.010376
0.00579834	-0.0164795	-0.0106812
0.00518799	-0.0167847	-0.0115967
0.00488281	-0.0170898	-0.012207
0.00488281	-0.017395	-0.0125122
0.00488281	-0.0170898	-0.012207
0.00518799	-0.0164795	-0.0112915
0.00579834	-0.0161743	-0.010376
0.00701904	-0.0167847	-0.00976563
0.00854492	-0.0177002	-0.00915527
0.010376	-0.0186157	-0.00823975
0.0125122	-0.0189209	-0.00640869
0.0140381	-0.0192261	-0.00518799
0.0152588	-0.0195313	-0.00427246
0.0158691	-0.0204468	-0.00457764
0.0161743	-0.0210571	-0.00488281
0.0161743	-0.0216675	-0.00549316
0.0161743	-0.0228882	-0.00671387
0.0161743	-0.0234985	-0.00732422
0.0161743	-0.0234985	-0.00732422
0.0158691	-0.0228882	-0.00701904
0.0158691	-0.0219727	-0.00610352
0.0161743	-0.0219727	-0.00579834
0.0164795	-0.0213623	-0.00488281
0.0164795	-0.020752	-0.00427246
0.0164795	-0.0201416	-0.00366211
0.0167847	-0.0201416	-0.00335693
0.017395	-0.0201416	-0.00274658
0.0183105	-0.020752	-0.00244141
0.0186157	-0.0216675	-0.00305176
0.0183105	-0.0234985	-0.00518799
0.0180054	-0.0259399	-0.00793457
0.0183105	-0.0289917	-0.0106812
0.0192261	-0.0311279	-0.0119019
0.020752	-0.032959	-0.012207
0.0222778	-0.0335693	-0.0112915
0.0234985	-0.0341797	-0.0106812
0.0247192	-0.0350952	-0.010376
0.0265503	-0.0360107	-0.00946045
0.0283813	-0.0366211	-0.00823975
0.0302124	-0.0375366	-0.00732422
0.0323486	-0.0384521	-0.00610352
0.0341797	-0.0390625	-0.00488281
0.0354004	-0.0396729	-0.00427246
0.0363159	-0.0408936	-0.00457764
0.0375366	-0.0427246	-0.00518799
0.0390625	-0.045166	-0.00610352
0.0411987	-0.0476074	-0.00640869
0.0436401	-0.0497437	-0.00610352
0.0460815	-0.0518799	-0.00579834
0.0491333	-0.0540161	-0.00488281
0.0518799	-0.055542	-0.00366211
0.0540161	-0.0561523	-0.00213623
0.0552368	-0.0564575	-0.0012207
0.0558472	-0.0567627	-0.000915527
0.0561523	-0.0564575	-0.000305176
0.0558472	-0.0561523	-0.000305176
0.0552368	-0.0558472	-0.000610352
0.0549316	-0.055542	-0.000610352
0.0543213	-0.0552368	-0.000915527
0.0546265	-0.0552368	-0.000610352
0.0552368	-0.055542	-0.000305176
0.0564575	-0.0570679	-0.000610352
0.0585938	-0.0601196	-0.00152588
0.0613403	-0.0640869	-0.00274658
0.0634766	-0.0671387	-0.00366211
0.0646973	-0.0680542	-0.00335693
0.0650024	-0.067749	-0.00274658
0.0643921	-0.067749	-0.00335693
0.0637817	-0.0680542	-0.00427246
0.0631714	-0.067749	-0.00457764
0.0622559	-0.0665283	-0.00427246
0.0610352	-0.0646973	-0.00366211
0.0598145	-0.0622559	-0.00244141
0.0595093	-0.06073	-0.0012207
0.06073	-0.06073	0
0.062561	-0.0613403	0.0012207
0.0640869	-0.0619507	0.00213623
0.0646973	-0.0622559	0.00244141
0.0646973	-0.0616455	0.00305176
0.0646973	-0.0601196	0.00457764
0.0634766	-0.0579834	0.00549316
0.0610352	-0.0546265	0.00640869
0.0564575	-0.0494385	0.00701904
0.0506592	-0.0430298	0.00762939
0.0445557	-0.0360107	0.00854492
0.0384521	-0.0286865	0.00976563
0.0326538	-0.0219727	0.0106812
0.0274658	-0.015564	0.0119019
0.0231934	-0.00976563	0.0134277
0.0198364	-0.00488281	0.0149536
0.017395	-0.0012207	0.0161743
0.0152588	0.0012207	0.0164795
0.0137329	0.00244141	0.0161743
0.012207	0.00305176	0.0152588
0.010376	0.00335693	0.0137329
0.00915527	0.00305176	0.012207
0.00732422	0.00274658	0.0100708
0.00549316	0.00274658	0.00823975
0.00274658	0.00366211	0.00640869
0	0.00457764	0.00457764
-0.00274658	0.00549316	0.00274658
-0.00488281	0.00701904	0.00213623
-0.00671387	0.0088501	0.00213623
-0.00793457	0.010376	0.00244141
-0.0088501	0.012207	0.00335693
-0.0100708	0.0146484	0.00457764
-0.0115967	0.0167847	0.00518799
-0.0134277	0.0186157	0.00518799
-0.0152588	0.0195313	0.00427246
-0.017395	0.0201416	0.00274658
-0.0195313	0.0201416	0.000610352
-0.0216675	0.0201416	-0.00152588
-0.0234985	0.0198364	-0.00366211
-0.0244141	0.0189209	-0.00549316
-0.0247192	0.0177002	-0.00701904
-0.0238037	0.0161743	-0.00762939
-0.0222778	0.0146484	-0.00762939
-0.0198364	0.0137329	-0.00610352
-0.0167847	0.0125122	-0.00427246
-0.0131226	0.0112915	-0.00183105
-0.00915527	0.0100708	0.000915527
-0.00579834	0.0088501	0.00305176
-0.00274658	0.00793457	0.00518799
-0.000305176	0.00732422	0.00701904
0.0012207	0.00671387	0.00793457
0.00274658	0.00579834	0.00854492
0.00396729	0.00488281	0.0088501
0.00488281	0.00457764	0.00946045
0.00518799	0.00488281	0.0100708
0.00518799	0.00549316	0.0106812
0.00518799	0.00579834	0.0109863
0.00488281	0.00610352	0.0109863
0.00457764	0.00762939	0.012207
0.00366211	0.00915527	0.0128174
0.00305176	0.010376	0.0134277
0.00274658	0.0106812	0.0134277
0.00305176	0.0112915	0.0143433
0.00305176	0.0115967	0.0146484
0.00305176	0.0115967	0.0146484
0.00305176	0.0109863	0.0140381
0.00274658	0.010376	0.0131226
0.00274658	0.0100708	0.0128174
0.00244141	0.0106812	0.0131226
0.00183105	0.0115967	0.0134277
0.000915527	0.0128174	0.0137329
-0.000610352	0.0143433	0.0137329
-0.00183105	0.0158691	0.0140381
-0.00335693	0.0167847	0.0134277
-0.00396729	0.0170898	0.0131226
-0.00427246	0.0170898	0.0128174
-0.00427246	0.0170898	0.0128174
-0.00366211	0.0164795	0.0128174
-0.00244141	0.0149536	0.0125122
-0.0012207	0.0134277	0.012207
-0.000915527	0.0125122	0.0115967
-0.0012207	0.012207	0.0109863
-0.00183105	0.0125122	0.0106812
-0.00244141	0.0131226	0.0106812
-0.00366211	0.0146484	0.0109863
-0.00457764	0.0167847	0.012207
-0.00549316	0.0186157	0.0131226
-0.00610352	0.0204468	0.0143433
-0.00640869	0.0219727	0.015564
-0.00640869	0.0238037	0.017395
-0.00640869	0.0253296	0.0189209
-0.00610352	0.0262451	0.0201416
-0.00518799	0.0262451	0.0210571
-0.00396729	0.0256348	0.0216675
-0.00244141	0.0247192	0.0222778
-0.000610352	0.0234985	0.0228882
0.0012207	0.0219727	0.0231934
0.00244141	0.020752	0.0231934
0.00305176	0.0198364	0.0228882
0.00366211	0.0189209	0.022583
0.00366211	0.0177002	0.0213623
0.00305176	0.0170898	0.0201416
0.00244141	0.017395	0.0198364
0.00152588	0.0180054	0.0195313
0.000305176	0.0186157	0.0189209
-0.000915527	0.0189209	0.0180054
-0.00213623	0.0186157	0.0164795
-0.00335693	0.0186157	0.0152588
-0.00457764	0.0189209	0.0143433
-0.00518799	0.0192261	0.0140381
-0.00518799	0.0189209	0.0137329
-0.00518799	0.0192261	0.0140381
-0.00457764	0.0198364	0.0152588
-0.00396729	0.020752	0.0167847
-0.00305176	0.0219727	0.0189209
-0.00244141	0.0231934	0.020752
-0.00213623	0.0244141	0.0222778
-0.00213623	0.0262451	0.0241089
-0.00213623	0.027771	0.0256348
-0.00183105	0.0280762	0.0262451
-0.0012207	0.027771	0.0265503
-0.000915527	0.0265503	0.0256348
-0.000305176	0.0247192	0.0244141
0.000305176	0.022583	0.0228882
0.000610352	0.0201416	0.020752
0.000915527	0.0177002	0.0186157
0.000915527	0.0161743	0.0170898
0.000610352	0.0158691	0.0164795
0.000305176	0.015564	0.0158691
0	0.0158691	0.0158691
0	0.0164795	0.0164795
-0.000305176	0.0177002	0.017395
-0.000610352	0.0192261	0.0186157
-0.000915527	0.020752	0.0198364
-0.0012207	0.0219727	0.020752
-0.00152588	0.0231934	0.0216675
-0.00213623	0.0241089	0.0219727
-0.00274658	0.0247192	0.0219727
-0.00335693	0.0250244	0.0216675
-0.00427246	0.0253296	0.0210571
-0.00518799	0.0253296	0.0201416
-0.00610352	0.0253296	0.0192261
-0.00671387	0.0256348	0.0189209
-0.00732422	0.0262451	0.0189209
-0.00823975	0.0271606	0.0189209
-0.0088501	0.0283813	0.0195313
-0.00946045	0.0289917	0.0195313
-0.0100708	0.0296021	0.0195313
-0.010376	0.0299072	0.0195313
-0.010376	0.0299072	0.0195313
-0.010376	0.0302124	0.0198364
-0.0106812	0.0305176	0.0198364
-0.0112915	0.0308228	0.0195313
-0.0119019	0.0311279	0.0192261
-0.0125122	0.0314331	0.0189209
-0.0134277	0.0317383	0.0183105
-0.0146484	0.0311279	0.0164795
-0.015564	0.0305176	0.0149536
-0.0149536	0.0299072	0.0149536
-0.0134277	0.0292969	0.0158691
-0.0125122	0.0280762	0.015564
-0.0119019	0.0268555	0.0149536
-0.0115967	0.0256348	0.0140381
-0.010376	0.0244141	0.0140381
-0.00854492	0.0228882	0.0143433
-0.00671387	0.0213623	0.0146484
-0.00549316	0.020752	0.0152588
-0.00488281	0.0210571	0.0161743
-0.00518799	0.0222778	0.0170898
-0.00518799	0.0234985	0.0183105
-0.00549316	0.0241089	0.0186157
-0.00610352	0.0247192	0.0186157
-0.00640869	0.0250244	0.0186157
-0.00701904	0.0256348	0.0186157
-0.00671387	0.0259399	0.0192261
-0.00640869	0.0259399	0.0195313
-0.00549316	0.0250244	0.0195313
-0.00427246	0.0244141	0.0201416
-0.00305176	0.0238037	0.020752
-0.00152588	0.0231934	0.0216675
0.000305176	0.022583	0.0228882
0.00152588	0.0222778	0.0238037
0.00305176	0.0222778	0.0253296
0.00457764	0.0219727	0.0265503
0.00640869	0.0219727	0.0283813
0.00823975	0.0222778	0.0305176
0.00946045	0.0228882	0.0323486
0.00976563	0.0234985	0.0332642
0.00976563	0.0238037	0.0335693
0.00915527	0.0238037	0.032959
0.00915527	0.0238037	0.032959
0.00854492	0.0241089	0.0326538
0.00762939	0.0244141	0.0320435
0.00610352	0.0250244	0.0311279
0.00457764	0.0253296	0.0299072
0.00396729	0.0253296	0.0292969
0.00366211	0.0253296	0.0289917
0.00335693	0.0250244	0.0283813
0.00335693	0.0250244	0.0283813
0.00366211	0.0247192	0.0283813
0.00457764	0.0238037	0.0283813
0.00579834	0.0228882	0.0286865
0.00671387	0.0222778	0.0289917
0.00732422	0.0216675	0.0289917
0.00732422	0.0204468	0.027771
0.00732422	0.0192261	0.0265503
0.00762939	0.0186157	0.0262451
0.00793457	0.0183105	0.0262451
0.00793457	0.0177002	0.0256348
0.00793457	0.0167847	0.0247192
0.00732422	0.0164795	0.0238037
0.00640869	0.0161743	0.022583
0.00579834	0.0158691	0.0216675
0.00610352	0.0152588	0.0213623
0.00701904	0.0143433	0.0213623
0.00854492	0.0137329	0.0222778
0.010376	0.0131226	0.0234985
0.0125122	0.0128174	0.0253296
0.0149536	0.012207	0.0271606
0.0177002	0.0115967	0.0292969
0.020752	0.0112915	0.0320435
0.0238037	0.0112915	0.0350952
0.0262451	0.0119019	0.038147
0.027771	0.0134277	0.0411987
0.0286865	0.0149536	0.0436401
0.0292969	0.0158691	0.045166
0.0299072	0.0161743	0.0460815
0.0305176	0.0161743	0.0466919
0.0305176	0.0164795	0.0469971
0.0308228	0.0170898	0.0479126
0.0308228	0.0177002	0.0485229
0.0311279	0.0186157	0.0497437
0.0317383	0.0195313	0.0512695
0.0326538	0.0204468	0.0531006
0.0332642	0.0210571	0.0543213
0.0338745	0.0204468	0.0543213
0.03479	0.0183105	0.0531006
0.0360107	0.0137329	0.0497437
0.0375366	0.00762939	0.045166
0.0384521	0.000610352	0.0390625
0.0393677	-0.00701904	0.0323486
0.039978	-0.0149536	0.0250244
0.0405884	-0.0228882	0.0177002
0.0408936	-0.0305176	0.010376
0.0402832	-0.0372314	0.00305176
0.0384521	-0.0408936	-0.00244141
0.0350952	-0.0405884	-0.00549316
0.0305176	-0.0366211	-0.00610352
0.0250244	-0.0302124	-0.00518799
0.0195313	-0.0228882	-0.00335693
0.0143433	-0.0152588	-0.000915527
0.00976563	-0.00762939	0.00213623
0.00549316	-0.000610352	0.00488281
0.00183105	0.00488281	0.00671387
-0.000915527	0.00976563	0.0088501
-0.00335693	0.0134277	0.0100708
-0.00518799	0.0152588	0.0100708
-0.00640869	0.015564	0.00915527
-0.00732422	0.0149536	0.00762939
-0.00823975	0.0137329	0.00549316
-0.00823975	0.0119019	0.00366211
-0.00762939	0.010376	0.00274658
-0.00671387	0.00854492	0.00183105
-0.00549316	0.00671387	0.0012207
-0.00366211	0.00488281	0.0012207
-0.00152588	0.00335693	0.00183105
0.000305176	0.00183105	0.00213623
0.00213623	0.000610352	0.00274658
0.00396729	-0.000305176	0.00366211
0.00549316	-0.0012207	0.00427246
0.00640869	-0.0012207	0.00518799
0.00579834	-0.000305176	0.00549316
0.00427246	0.00213623	0.00640869
0.00152588	0.00640869	0.00793457
-0.00152588	0.0131226	0.0115967
-0.00549316	0.0228882	0.017395
-0.00915527	0.0335693	0.0244141
-0.0119019	0.043335	0.0314331
-0.012207	0.050354	0.038147
-0.00976563	0.0543213	0.0445557
-0.00335693	0.0549316	0.0515747
0.00762939	0.0509644	0.0585938
0.0219727	0.0421143	0.0640869
0.0396729	0.0283813	0.0680542
0.0598145	0.00976563	0.0695801
0.0820923	-0.0115967	0.0704956
0.105591	-0.0323486	0.0732422
0.127869	-0.0494385	0.0784302
0.146484	-0.0604248	0.0860596
0.158691	-0.0610352	0.0976563
0.162048	-0.0506592	0.111389
0.156555	-0.0314331	0.125122
0.143127	-0.00610352	0.137024
0.122986	0.022583	0.145569
0.0982666	0.0494385	0.147705
0.0720215	0.0686646	0.140686
0.0463867	0.0762939	0.122681
0.0228882	0.0704956	0.0933838
0.00274658	0.0531006	0.0558472
-0.0131226	0.0268555	0.0137329
-0.0244141	-0.00610352	-0.0305176
-0.0299072	-0.0424194	-0.0723267
-0.0311279	-0.0759888	-0.107117
-0.0299072	-0.102539	-0.132446
-0.0280762	-0.118408	-0.146484
-0.0265503	-0.122681	-0.149231
-0.0259399	-0.115356	-0.141296
-0.0262451	-0.098877	-0.125122
-0.0274658	-0.0762939	-0.10376
-0.0283813	-0.0515747	-0.0799561
-0.0286865	-0.0292969	-0.0579834
-0.0280762	-0.0119019	-0.039978
-0.0265503	-0.000610352	-0.0271606
-0.0244141	0.00488281	-0.0195313
-0.0213623	0.00549316	-0.0158691
-0.0177002	0.00213623	-0.015564
-0.0140381	-0.00305176	-0.0170898
-0.0109863	-0.00793457	-0.0189209
-0.00946045	-0.0106812	-0.0201416
-0.00946045	-0.0109863	-0.0204468
-0.0100708	-0.00976563	-0.0198364
-0.0106812	-0.00793457	-0.0186157
-0.0109863	-0.00640869	-0.017395
-0.0109863	-0.00549316	-0.0164795
-0.0106812	-0.00549316	-0.0161743
-0.00946045	-0.00579834	-0.0152588
-0.00823975	-0.00671387	-0.0149536
-0.00640869	-0.00732422	-0.0137329
-0.00488281	-0.00793457	-0.0128174
-0.00335693	-0.00823975	-0.0115967
-0.00244141	-0.0088501	-0.0112915
-0.00183105	-0.00915527	-0.0109863
-0.000915527	-0.00823975	-0.00915527
-0.000610352	-0.00640869	-0.00701904
-0.000610352	-0.00427246	-0.00488281
-0.000610352	-0.00335693	-0.00396729
-0.000610352	-0.00366211	-0.00427246
-0.000305176	-0.00457764	-0.00488281
0.000305176	-0.00579834	-0.00549316
0.000915527	-0.00762939	-0.00671387
0.00213623	-0.00915527	-0.00701904
0.00305176	-0.010376	-0.00732422
0.00427246	-0.0112915	-0.00701904
0.00549316	-0.012207	-0.00671387
0.00640869	-0.0125122	-0.00610352
0.00701904	-0.012207	-0.00518799
0.00671387	-0.0115967	-0.00488281
0.00640869	-0.0106812	-0.00427246
0.00610352	-0.00976563	-0.00366211
0.00579834	-0.00946045	-0.00366211
0.00610352	-0.0100708	-0.00396729
0.00701904	-0.0112915	-0.00427246
0.00793457	-0.0115967	-0.00366211
0.00823975	-0.0115967	-0.00335693
0.00854492	-0.0119019	-0.00335693
0.00946045	-0.0119019	-0.00244141
0.0106812	-0.0119019	-0.0012207
0.012207	-0.0112915	0.000915527
0.0131226	-0.010376	0.00274658
0.0137329	-0.0088501	0.00488281
0.0137329	-0.00701904	0.00671387
0.0134277	-0.00579834	0.00762939
0.0134277	-0.00518799	0.00823975
0.0134277	-0.00518799	0.00823975
0.0137329	-0.00579834	0.00793457
0.0146484	-0.00701904	0.00762939
0.0161743	-0.0088501	0.00732422
0.017395	-0.010376	0.00701904
0.0189209	-0.0119019	0.00701904
0.0201416	-0.0140381	0.00610352
0.0216675	-0.0164795	0.00518799
0.0231934	-0.0186157	0.00457764
0.0244141	-0.0201416	0.00427246
0.0250244	-0.0204468	0.00457764
0.0253296	-0.020752	0.00457764
0.0253296	-0.020752	0.00457764
0.0253296	-0.020752	0.00457764
0.0250244	-0.020752	0.00427246
0.0256348	-0.0213623	0.00427246
0.0268555	-0.022583	0.00427246
0.027771	-0.0234985	0.00427246
0.0283813	-0.0234985	0.00488281
0.0286865	-0.0238037	0.00488281
0.0292969	-0.0241089	0.00518799
0.0299072	-0.0253296	0.00457764
0.0311279	-0.0265503	0.00457764
0.0320435	-0.027771	0.00427246
0.032959	-0.0289917	0.00396729
0.0332642	-0.0296021	0.00366211
0.0335693	-0.0302124	0.00335693
0.0335693	-0.0314331	0.00213623
0.0335693	-0.0326538	0.000915527
0.0338745	-0.0341797	-0.000305176
0.03479	-0.0357056	-0.000915527
0.0357056	-0.0372314	-0.00152588
0.0363159	-0.0384521	-0.00213623
0.0366211	-0.0390625	-0.00244141
0.0363159	-0.039978	-0.00366211
0.0357056	-0.0408936	-0.00518799
0.0363159	-0.0424194	-0.00610352
0.0375366	-0.0436401	-0.00610352
0.0384521	-0.0442505	-0.00579834
0.0387573	-0.0442505	-0.00549316
0.0384521	-0.0439453	-0.00549316
0.0384521	-0.0439453	-0.00549316
0.0393677	-0.0445557	-0.00518799
0.0408936	-0.045166	-0.00427246
0.0421143	-0.0454712	-0.00335693
0.0430298	-0.0448608	-0.00183105
0.0436401	-0.0442505	-0.000610352
0.045166	-0.043335	0.00183105
0.0476074	-0.043335	0.00427246
0.0506592	-0.0442505	0.00640869
0.0534058	-0.0457764	0.00762939
0.055542	-0.0457764	0.00976563
0.0570679	-0.045166	0.0119019
0.0582886	-0.0442505	0.0140381
0.0585938	-0.0430298	0.015564
0.057373	-0.0408936	0.0164795
0.0549316	-0.0384521	0.0164795
0.0512695	-0.0354004	0.0158691
0.0469971	-0.0317383	0.0152588
0.0418091	-0.0274658	0.0143433
0.0369263	-0.0234985	0.0134277
0.0320435	-0.0195313	0.0125122
0.0274658	-0.0164795	0.0109863
0.0234985	-0.0143433	0.00915527
0.0198364	-0.0119019	0.00793457
0.0167847	-0.00915527	0.00762939
0.0140381	-0.00640869	0.00762939
0.0112915	-0.00335693	0.00793457
0.00823975	-0.000305176	0.00793457
0.00579834	0.00274658	0.00854492
0.00335693	0.00518799	0.00854492
0.0012207	0.00732422	0.00854492
-0.0012207	0.0100708	0.0088501
-0.00396729	0.0128174	0.0088501
-0.00640869	0.0149536	0.00854492
-0.00823975	0.0164795	0.00823975
-0.00976563	0.0170898	0.00732422
-0.0109863	0.017395	0.00640869
-0.012207	0.0177002	0.00549316
-0.0131226	0.0177002	0.00457764
-0.0146484	0.0180054	0.00335693
-0.0161743	0.0177002	0.00152588
-0.0177002	0.0170898	-0.000610352
-0.0183105	0.0161743	-0.00213623
-0.0183105	0.0149536	-0.00335693
-0.0186157	0.0134277	-0.00518799
-0.0189209	0.0119019	-0.00701904
-0.0195313	0.0109863	-0.00854492
-0.0198364	0.0106812	-0.00915527
-0.0195313	0.0100708	-0.00946045
-0.0186157	0.00946045	-0.00915527
-0.0170898	0.00915527	-0.00793457
-0.0158691	0.0100708	-0.00579834
-0.0149536	0.0115967	-0.00335693
-0.0137329	0.0128174	-0.000915527
-0.0125122	0.0140381	0.00152588
-0.0106812	0.0149536	0.00427246
-0.0088501	0.0158691	0.00701904
-0.00793457	0.0161743	0.00823975
-0.00732422	0.0161743	0.0088501
-0.00701904	0.0152588	0.00823975
-0.00701904	0.0146484	0.00762939
-0.00701904	0.0131226	0.00610352
-0.00701904	0.0119019	0.00488281
-0.00762939	0.010376	0.00274658
-0.0088501	0.0088501	0
-0.010376	0.00793457	-0.00244141
-0.012207	0.00793457	-0.00427246
-0.0146484	0.00823975	-0.00640869
-0.0161743	0.00854492	-0.00762939
-0.017395	0.00854492	-0.0088501
-0.0180054	0.00915527	-0.0088501
-0.0186157	0.0100708	-0.00854492
-0.0189209	0.0106812	-0.00823975
-0.0186157	0.0112915	-0.00732422
-0.0177002	0.0109863	-0.00671387
-0.0161743	0.0106812	-0.00549316
-0.0146484	0.0100708	-0.00457764
-0.0134277	0.00946045	-0.00396729
-0.0128174	0.0088501	-0.00396729
-0.0125122	0.00793457	-0.00457764
-0.012207	0.00671387	-0.00549316
-0.0119019	0.00518799	-0.00671387
-0.0115967	0.00427246	-0.00732422
-0.0115967	0.00335693	-0.00823975
-0.012207	0.00244141	-0.00976563
-0.0128174	0.00213623	-0.0106812
-0.0134277	0.00152588	-0.0119019
-0.0137329	0.000915527	-0.0128174
-0.0137329	0.000305176	-0.0134277
-0.0134277	-0.000610352	-0.0140381
-0.0137329	-0.0012207	-0.0149536
-0.0149536	-0.0012207	-0.0161743
-0.0170898	-0.000305176	-0.017395
-0.0192261	0.000305176	-0.0189209
-0.020752	0.000305176	-0.0204468
-0.0210571	0	-0.0210571
-0.020752	-0.000305176	-0.0210571
-0.0201416	0	-0.0201416
-0.0195313	0.00152588	-0.0180054
-0.0186157	0.00366211	-0.0149536
-0.0167847	0.00579834	-0.0109863
-0.0143433	0.00701904	-0.00732422
-0.0112915	0.00732422	-0.00396729
-0.0088501	0.00701904	-0.00183105
-0.00701904	0.00701904	0
-0.00640869	0.00732422	0.000915527
-0.00640869	0.00701904	0.000610352
-0.00701904	0.00579834	-0.0012207
-0.00762939	0.00396729	-0.00366211
-0.0088501	0.00152588	-0.00732422
-0.010376	-0.000305176	-0.0106812
-0.012207	-0.00152588	-0.0137329
-0.0134277	-0.00213623	-0.015564
-0.0143433	-0.00213623	-0.0164795
-0.0149536	-0.00152588	-0.0164795
-0.015564	-0.000915527	-0.0164795
-0.0164795	0	-0.0164795
-0.0167847	0.000610352	-0.0161743
-0.0167847	0.0012207	-0.015564
-0.0170898	0.00244141	-0.0146484
-0.017395	0.00396729	-0.0134277
-0.0177002	0.00518799	-0.0125122
-0.0177002	0.00518799	-0.0125122
-0.0177002	0.00579834	-0.0119019
-0.017395	0.00701904	-0.010376
-0.017395	0.00854492	-0.0088501
-0.017395	0.00946045	-0.00793457
-0.017395	0.00976563	-0.00762939
-0.0170898	0.0100708	-0.00701904
-0.0164795	0.0100708	-0.00640869
-0.0158691	0.00976563	-0.00610352
-0.0152588	0.00915527	-0.00610352
-0.0152588	0.00823975	-0.00701904
-0.0158691	0.00732422	-0.00854492
-0.0161743	0.00640869	-0.00976563
-0.0149536	0.00488281	-0.0100708
-0.0134277	0.00366211	-0.00976563
-0.0119019	0.00335693	-0.00854492
-0.0112915	0.00244141	-0.0088501
-0.0106812	0.00152588	-0.00915527
-0.010376	0.000915527	-0.00946045
-0.0100708	0.0012207	-0.0088501
-0.0100708	0.00183105	-0.00823975
-0.0106812	0.00305176	-0.00762939
-0.0115967	0.00427246	-0.00732422
-0.0134277	0.00579834	-0.00762939
-0.0152588	0.00762939	-0.00762939
-0.017395	0.0088501	-0.00854492
-0.0189209	0.010376	-0.00854492
-0.0201416	0.0112915	-0.0088501
-0.0204468	0.0112915	-0.00915527
-0.0198364	0.010376	-0.00946045
-0.0180054	0.00915527	-0.0088501
-0.0158691	0.00823975	-0.00762939
-0.0137329	0.00671387	-0.00701904
-0.0112915	0.00488281	-0.00640869
-0.00946045	0.00305176	-0.00640869
-0.00823975	0.00213623	-0.00610352
-0.00732422	0.00244141	-0.00488281
-0.00732422	0.00366211	-0.00366211
-0.00823975	0.00488281	-0.00335693
-0.00946045	0.00610352	-0.00335693
-0.0115967	0.00762939	-0.00396729
-0.0131226	0.0088501	-0.00427246
-0.0146484	0.00946045	-0.00518799
-0.015564	0.00976563	-0.00579834
-0.0167847	0.00976563	-0.00701904
-0.017395	0.00915527	-0.00823975
-0.0170898	0.00793457	-0.00915527
-0.0164795	0.00640869	-0.0100708
-0.015564	0.00549316	-0.0100708
-0.0146484	0.00427246	-0.010376
-0.0137329	0.00366211	-0.0100708
-0.0128174	0.00274658	-0.0100708
-0.0119019	0.00244141	-0.00946045
-0.0115967	0.00305176	-0.00854492
-0.012207	0.00457764	-0.00762939
-0.0125122	0.00640869	-0.00610352
-0.0128174	0.00793457	-0.00488281
-0.0128174	0.0088501	-0.00396729
-0.0125122	0.00976563	-0.00274658
-0.0128174	0.0106812	-0.00213623
-0.0134277	0.0112915	-0.00213623
-0.0137329	0.0109863	-0.00274658
-0.0128174	0.00946045	-0.00335693
-0.0112915	0.00762939	-0.00366211
-0.00946045	0.00549316	-0.00396729
-0.00732422	0.00305176	-0.00427246
-0.00579834	0.000610352	-0.00518799
-0.00427246	-0.00152588	-0.00579834
-0.00305176	-0.00305176	-0.00610352
-0.00213623	-0.00335693	-0.00549316
-0.00152588	-0.00244141	-0.00396729
-0.00152588	-0.0012207	-0.00274658
-0.00213623	0.000305176	-0.00183105
-0.00305176	0.00183105	-0.0012207
-0.00457764	0.00366211	-0.000915527
-0.00610352	0.00488281	-0.0012207
-0.00671387	0.00518799	-0.00152588
-0.00610352	0.00488281	-0.0012207
-0.00549316	0.00366211	-0.00183105
-0.00457764	0.00213623	-0.00244141
-0.00335693	0.000915527	-0.00244141
-0.00152588	-0.000305176	-0.00183105
0.000305176	-0.0012207	-0.000915527
0.00244141	-0.00183105	0.000610352
0.00396729	-0.00152588	0.00244141
0.00518799	-0.000610352	0.00457764
0.00549316	0.00152588	0.00701904
0.00488281	0.00427246	0.00915527
0.00366211	0.00640869	0.0100708
0.00244141	0.00732422	0.00976563
0.0012207	0.00732422	0.00854492
0	0.00671387	0.00671387
-0.00152588	0.00610352	0.00457764
-0.00305176	0.00518799	0.00213623
-0.00427246	0.00335693	-0.000915527
-0.00579834	0.000915527	-0.00488281
-0.00701904	-0.000915527	-0.00793457
-0.00793457	-0.00183105	-0.00976563
-0.00732422	-0.00274658	-0.0100708
-0.00640869	-0.00305176	-0.00946045
-0.00488281	-0.00305176	-0.00793457
-0.00366211	-0.00305176	-0.00671387
-0.00213623	-0.00305176	-0.00518799
-0.000610352	-0.00244141	-0.00305176
0.0012207	-0.00152588	-0.000305176
0.00244141	-0.000610352	0.00183105
0.00335693	0.000305176	0.00366211
0.00335693	0.000915527	0.00427246
0.00244141	0.00183105	0.00427246
0.00183105	0.00274658	0.00457764
0.000915527	0.00427246	0.00518799
0.000610352	0.00549316	0.00610352
0.000305176	0.00640869	0.00671387
0.000305176	0.00610352	0.00640869
0.000915527	0.00549316	0.00640869
0.000915527	0.00488281	0.00579834
0.000915527	0.00427246	0.00518799
0.0012207	0.00335693	0.00457764
0.00213623	0.00244141	0.00457764
0.00366211	0.00183105	0.00549316
0.00518799	0.0012207	0.00640869
0.00671387	0.000915527	0.00762939
0.00732422	0.0012207	0.00854492
0.00762939	0.00152588	0.00915527
0.00793457	0.00183105	0.00976563
0.0088501	0.0012207	0.0100708
0.00976563	0.000610352	0.010376
0.010376	0	0.010376
0.0106812	-0.000305176	0.010376
0.0106812	-0.000610352	0.0100708
0.0106812	-0.00152588	0.00915527
0.0106812	-0.00213623	0.00854492
0.0109863	-0.00305176	0.00793457
0.0119019	-0.00366211	0.00823975
0.0137329	-0.00335693	0.010376
0.0161743	-0.00305176	0.0131226
0.0186157	-0.00274658	0.0158691
0.0216675	-0.00274658	0.0189209
0.0250244	-0.00305176	0.0219727
0.0283813	-0.00396729	0.0244141
0.0311279	-0.00427246	0.0268555
0.0323486	-0.00305176	0.0292969
0.0320435	-0.0012207	0.0308228
0.0314331	0.0012207	0.0326538
0.0308228	0.00396729	0.03479
0.0305176	0.00671387	0.0372314
0.0302124	0.00976563	0.039978
0.0299072	0.0128174	0.0427246
0.0296021	0.0149536	0.0445557
0.0296021	0.0152588	0.0448608
0.0302124	0.0131226	0.043335
0.0320435	0.00823975	0.0402832
0.0344849	0.0012207	0.0357056
0.0372314	-0.00732422	0.0299072
0.0390625	-0.0164795	0.022583
0.0402832	-0.0256348	0.0146484
0.0408936	-0.0344849	0.00640869
0.0415039	-0.0421143	-0.000610352
0.0415039	-0.0466919	-0.00518799
0.0405884	-0.0479126	-0.00732422
0.038147	-0.0460815	-0.00793457
0.03479	-0.0411987	-0.00640869
0.0302124	-0.0335693	-0.00335693
0.0250244	-0.0250244	0
0.0192261	-0.0164795	0.00274658
0.0131226	-0.00823975	0.00488281
0.00732422	-0.0012207	0.00610352
0.00152588	0.00396729	0.00549316
-0.00366211	0.00793457	0.00427246
-0.0088501	0.010376	0.00152588
-0.0128174	0.0109863	-0.00183105
-0.0158691	0.0109863	-0.00488281
-0.0180054	0.0100708	-0.00793457
-0.0186157	0.00854492	-0.0100708
-0.017395	0.00701904	-0.010376
-0.0152588	0.00518799	-0.0100708
-0.012207	0.00396729	-0.00823975
-0.00946045	0.00274658	-0.00671387
-0.00640869	0.00183105	-0.00457764
-0.00366211	0.0012207	-0.00244141
-0.0012207	0.000610352	-0.000610352
0.000610352	0.000305176	0.000915527
0.00152588	0.000305176	0.00183105
0.00183105	0.000305176	0.00213623
0.000915527	0.000610352	0.00152588
-0.000305176	0.00213623	0.00183105
-0.00213623	0.00549316	0.00335693
-0.00396729	0.010376	0.00640869
-0.00610352	0.0180054	0.0119019
-0.00854492	0.0286865	0.0201416
-0.0106812	0.039978	0.0292969
-0.0106812	0.0494385	0.0387573
-0.00823975	0.0558472	0.0476074
-0.00244141	0.0588989	0.0564575
0.00579834	0.0576782	0.0634766
0.0167847	0.0524902	0.0692749
0.0305176	0.0418091	0.0723267
0.0479126	0.0250244	0.072937
0.0683594	0.00244141	0.0708008
0.0906372	-0.0219727	0.0686646
0.11322	-0.0445557	0.0686646
0.133972	-0.0631714	0.0708008
0.151367	-0.0741577	0.0772095
0.162964	-0.0747681	0.0881958
0.167236	-0.0650024	0.102234
0.163574	-0.0457764	0.117798
0.151672	-0.020752	0.13092
0.132751	0.00701904	0.139771
0.109558	0.0314331	0.140991
0.0848389	0.0466919	0.131531
0.06073	0.0497437	0.110474
0.0387573	0.0405884	0.0793457
0.0204468	0.0204468	0.0408936
0.00579834	-0.00671387	-0.000915527
-0.00488281	-0.0369263	-0.0418091
-0.0115967	-0.0674438	-0.0790405
-0.015564	-0.0939941	-0.109558
-0.017395	-0.11322	-0.130615
-0.0183105	-0.122375	-0.140686
-0.0192261	-0.119019	-0.138245
-0.0210571	-0.104675	-0.125732
-0.0234985	-0.0823975	-0.105896
-0.0271606	-0.0567627	-0.0839233
-0.0302124	-0.0320435	-0.0622559
-0.0326538	-0.0106812	-0.043335
-0.032959	0.00518799	-0.027771
-0.0320435	0.0146484	-0.017395
-0.0292969	0.017395	-0.0119019
-0.0256348	0.0152588	-0.010376
-0.0210571	0.0100708	-0.0109863
-0.0170898	0.00457764	-0.0125122
-0.0137329	-0.000305176	-0.0140381
-0.0115967	-0.00335693	-0.0149536
-0.00976563	-0.00488281	-0.0146484
-0.00823975	-0.00518799	-0.0134277
-0.00732422	-0.00396729	-0.0112915
-0.00701904	-0.00244141	-0.00946045
-0.00640869	-0.000610352	-0.00701904
-0.00610352	0.0012207	-0.00488281
-0.00610352	0.00213623	-0.00396729
-0.00640869	0.00244141	-0.00396729
-0.00671387	0.00213623	-0.00457764
-0.00701904	0.00213623	-0.00488281
-0.00762939	0.00152588	-0.00610352
-0.0088501	0	-0.0088501
-0.00976563	-0.00213623	-0.0119019
-0.010376	-0.00488281	-0.0152588
-0.0106812	-0.00762939	-0.0183105
-0.0106812	-0.00915527	-0.0198364
-0.0100708	-0.00976563	-0.0198364
-0.00976563	-0.00976563	-0.0195313
-0.00946045	-0.0088501	-0.0183105
-0.00976563	-0.00793457	-0.0177002
-0.00976563	-0.00671387	-0.0164795
-0.00915527	-0.00518799	-0.0143433
-0.00854492	-0.00366211	-0.012207
-0.00793457	-0.00274658	-0.0106812
-0.00732422	-0.00244141	-0.00976563
-0.00701904	-0.00244141	-0.00946045
-0.00701904	-0.00305176	-0.0100708
-0.00732422	-0.00457764	-0.0119019
-0.00701904	-0.00610352	-0.0131226
-0.00671387	-0.00793457	-0.0146484
-0.00701904	-0.00915527	-0.0161743
-0.00854492	-0.00946045	-0.0180054
-0.0100708	-0.0088501	-0.0189209
-0.0106812	-0.00793457	-0.0186157
-0.0106812	-0.00732422	-0.0180054
-0.00976563	-0.00701904	-0.0167847
-0.0088501	-0.00579834	-0.0146484
-0.00823975	-0.00518799	-0.0134277
-0.00762939	-0.00518799	-0.0128174
-0.00671387	-0.00579834	-0.0125122
-0.00549316	-0.00610352	-0.0115967
-0.00366211	-0.00671387	-0.010376
-0.00244141	-0.00732422	-0.00976563
-0.00183105	-0.00793457	-0.00976563
-0.00244141	-0.00823975	-0.0106812
-0.00335693	-0.00823975	-0.0115967
-0.00457764	-0.00823975	-0.0128174
-0.00457764	-0.00854492	-0.0131226
-0.00457764	-0.0088501	-0.0134277
-0.00427246	-0.00946045	-0.0137329
-0.00366211	-0.0106812	-0.0143433
-0.00274658	-0.0119019	-0.0146484
-0.00152588	-0.0131226	-0.0146484
-0.000305176	-0.0140381	-0.0143433
0.0012207	-0.0146484	-0.0134277
0.00274658	-0.0152588	-0.0125122
0.00396729	-0.0158691	-0.0119019
0.00427246	-0.0161743	-0.0119019
0.00396729	-0.0164795	-0.0125122
0.00305176	-0.0167847	-0.0137329
0.00213623	-0.0164795	-0.0143433
0.0012207	-0.0161743	-0.0149536
0.000610352	-0.0161743	-0.015564
0.000305176	-0.0170898	-0.0167847
0.000610352	-0.0183105	-0.0177002
0.0012207	-0.0195313	-0.0183105
0.00213623	-0.0201416	-0.0180054
0.00335693	-0.0210571	-0.0177002
0.00549316	-0.022583	-0.0170898
0.00793457	-0.0247192	-0.0167847
0.0106812	-0.0274658	-0.0167847
0.0131226	-0.0299072	-0.0167847
0.0146484	-0.0314331	-0.0167847
0.015564	-0.0323486	-0.0167847
0.0161743	-0.0338745	-0.0177002
0.0170898	-0.0360107	-0.0189209
0.0180054	-0.0375366	-0.0195313
0.0192261	-0.0384521	-0.0192261
0.0201416	-0.0390625	-0.0189209
0.020752	-0.0393677	-0.0186157
0.0213623	-0.0396729	-0.0183105
0.0219727	-0.039978	-0.0180054
0.022583	-0.0402832	-0.0177002
0.0241089	-0.039978	-0.0158691
0.0259399	-0.039978	-0.0140381
0.027771	-0.0402832	-0.0125122
0.0292969	-0.039978	-0.0106812
0.0305176	-0.0390625	-0.00854492
0.0314331	-0.0384521	-0.00701904
0.0326538	-0.0375366	-0.00488281
0.0344849	-0.0369263	-0.00244141
0.0360107	-0.0369263	-0.000915527
0.0369263	-0.0369263	0
0.0369263	-0.0369263	0
0.0369263	-0.0369263	0
0.0369263	-0.0372314	-0.000305176
0.0375366	-0.0375366	0
0.038147	-0.0375366	0.000610352
0.038147	-0.0372314	0.000915527
0.0375366	-0.0363159	0.0012207
0.0369263	-0.0350952	0.00183105
0.0363159	-0.0332642	0.00305176
0.0344849	-0.0305176	0.00396729
0.0317383	-0.0268555	0.00488281
0.027771	-0.0228882	0.00488281
0.0241089	-0.0189209	0.00518799
0.0201416	-0.0152588	0.00488281
0.0164795	-0.012207	0.00427246
0.012207	-0.0088501	0.00335693
0.00762939	-0.00549316	0.00213623
0.00305176	-0.00305176	0
-0.000305176	-0.0012207	-0.00152588
-0.00244141	0.000305176	-0.00213623
-0.00396729	0.0012207	-0.00274658
-0.00518799	0.00183105	-0.00335693
-0.00610352	0.00213623	-0.00396729
-0.00732422	0.00305176	-0.00427246
-0.00915527	0.00518799	-0.00396729
-0.0112915	0.00732422	-0.00396729
-0.0134277	0.00946045	-0.00396729
-0.0152588	0.0112915	-0.00396729
-0.0170898	0.0134277	-0.00366211
-0.0186157	0.0158691	-0.00274658
-0.0198364	0.0177002	-0.00213623
-0.0210571	0.0195313	-0.00152588
-0.0219727	0.0204468	-0.00152588
-0.0219727	0.0204468	-0.00152588
-0.0213623	0.0198364	-0.00152588
-0.020752	0.0189209	-0.00183105
-0.0198364	0.0177002	-0.00213623
-0.0189209	0.0161743	-0.00274658
-0.0177002	0.0143433	-0.00335693
-0.0170898	0.012207	-0.00488281
-0.017395	0.010376	-0.00701904
-0.0186157	0.00854492	-0.0100708
-0.0204468	0.00671387	-0.0137329
-0.0222778	0.00549316	-0.0167847
-0.0244141	0.00427246	-0.0201416
-0.0265503	0.00366211	-0.0228882
-0.0289917	0.00305176	-0.0259399
-0.0305176	0.00274658	-0.027771
-0.0317383	0.00244141	-0.0292969
-0.032959	0.00183105	-0.0311279
-0.0338745	0.00213623	-0.0317383
-0.0344849	0.00305176	-0.0314331
-0.0341797	0.00396729	-0.0302124
-0.0338745	0.00488281	-0.0289917
-0.0335693	0.00518799	-0.0283813
-0.0326538	0.00488281	-0.027771
-0.0314331	0.00457764	-0.0268555
-0.0302124	0.00366211	-0.0265503
-0.0289917	0.00305176	-0.0259399
-0.027771	0.00274658	-0.0250244
-0.0262451	0.00152588	-0.0247192
-0.0253296	0.000305176	-0.0250244
-0.0247192	-0.000305176	-0.0250244
-0.0244141	-0.000305176	-0.0247192
-0.0244141	-0.000305176	-0.0247192
-0.0250244	-0.000915527	-0.0259399
-0.0256348	-0.00152588	-0.0271606
-0.0265503	-0.0012207	-0.027771
-0.0280762	-0.000305176	-0.0283813
-0.0302124	0	-0.0302124
-0.0314331	-0.000305176	-0.0317383
-0.0308228	-0.0012207	-0.0320435
-0.0289917	-0.00213623	-0.0311279
-0.0259399	-0.00274658	-0.0286865
-0.0234985	-0.00366211	-0.0271606
-0.0213623	-0.00427246	-0.0256348
-0.0195313	-0.00427246	-0.0238037
-0.0183105	-0.00427246	-0.022583
-0.0170898	-0.00427246	-0.0213623
-0.015564	-0.00427246	-0.0198364
-0.0143433	-0.00396729	-0.0183105
-0.0146484	-0.00396729	-0.0186157
-0.0164795	-0.00335693	-0.0198364
-0.0189209	-0.00274658	-0.0216675
-0.020752	-0.00183105	-0.022583
-0.0216675	-0.00152588	-0.0231934
-0.0219727	-0.00183105	-0.0238037
-0.0219727	-0.00152588	-0.0234985
-0.0219727	-0.0012207	-0.0231934
-0.0216675	-0.0012207	-0.0228882
-0.0216675	-0.0012207	-0.0228882
-0.0222778	-0.000610352	-0.0228882
-0.0231934	-0.000610352	-0.0238037
-0.0234985	-0.000915527	-0.0244141
-0.0234985	-0.00152588	-0.0250244
-0.0231934	-0.00152588	-0.0247192
-0.0231934	-0.0012207	-0.0244141
-0.0238037	-0.00152588	-0.0253296
-0.0250244	-0.00183105	-0.0268555
-0.0256348	-0.00183105	-0.0274658
-0.0265503	-0.0012207	-0.027771
-0.0265503	-0.000610352	-0.0271606
-0.0259399	-0.000305176	-0.0262451
-0.0241089	0	-0.0241089
-0.022583	-0.000610352	-0.0231934
-0.0213623	-0.0012207	-0.022583
-0.0195313	-0.00183105	-0.0213623
-0.0167847	-0.00213623	-0.0189209
-0.0143433	-0.00213623	-0.0164795
-0.0125122	-0.0012207	-0.0137329
-0.0109863	0	-0.0109863
-0.00946045	0.00213623	-0.00732422
-0.00762939	0.00427246	-0.00335693
-0.00610352	0.00640869	0.000305176
-0.00488281	0.00823975	0.00335693
-0.00396729	0.0100708	0.00610352
-0.00305176	0.0119019	0.0088501
-0.00152588	0.0128174	0.0112915
0.000610352	0.0128174	0.0134277
0.00244141	0.012207	0.0146484
0.00427246	0.0112915	0.015564
0.00579834	0.00976563	0.015564
0.00732422	0.00854492	0.0158691
0.00823975	0.00732422	0.015564
0.00823975	0.00640869	0.0146484
0.00793457	0.00579834	0.0137329
0.00732422	0.00579834	0.0131226
0.00701904	0.00579834	0.0128174
0.00701904	0.00610352	0.0131226
0.00701904	0.00579834	0.0128174
0.00732422	0.00579834	0.0131226
0.00732422	0.00579834	0.0131226
0.00732422	0.00579834	0.0131226
0.00732422	0.00610352	0.0134277
0.00732422	0.00671387	0.0140381
0.00671387	0.00793457	0.0146484
0.00579834	0.00915527	0.0149536
0.00488281	0.010376	0.0152588
0.00366211	0.0112915	0.0149536
0.00244141	0.0119019	0.0143433
0.0012207	0.0119019	0.0131226
0.000305176	0.0112915	0.0115967
-0.000610352	0.0106812	0.0100708
-0.000915527	0.0100708	0.00915527
-0.000915527	0.00915527	0.00823975
-0.000305176	0.00762939	0.00732422
0.000305176	0.00579834	0.00610352
0.000610352	0.00488281	0.00549316
0	0.00457764	0.00457764
-0.000305176	0.00457764	0.00427246
0.000305176	0.00518799	0.00549316
0.000305176	0.00610352	0.00640869
-0.000305176	0.00793457	0.00762939
-0.00152588	0.00946045	0.00793457
-0.00274658	0.00976563	0.00701904
-0.00396729	0.00976563	0.00579834
-0.00610352	0.00976563	0.00366211
-0.00854492	0.010376	0.00183105
-0.0112915	0.0109863	-0.000305176
-0.0140381	0.0109863	-0.00305176
-0.015564	0.0106812	-0.00488281
-0.0158691	0.0100708	-0.00579834
-0.0161743	0.00976563	-0.00640869
-0.0158691	0.0088501	-0.00701904
-0.0143433	0.00762939	-0.00671387
-0.0125122	0.00671387	-0.00579834
-0.0115967	0.00762939	-0.00396729
-0.0115967	0.0088501	-0.00274658
-0.0119019	0.00976563	-0.00213623
-0.0119019	0.0100708	-0.00183105
-0.0125122	0.0100708	-0.00244141
-0.0134277	0.0100708	-0.00335693
-0.0152588	0.0100708	-0.00518799
-0.017395	0.0106812	-0.00671387
-0.0195313	0.0109863	-0.00854492
-0.020752	0.010376	-0.010376
-0.0213623	0.00915527	-0.012207
-0.0213623	0.00762939	-0.0137329
-0.0210571	0.00640869	-0.0146484
-0.020752	0.00579834	-0.0149536
-0.020752	0.00579834	-0.0149536
-0.020752	0.00579834	-0.0149536
-0.0201416	0.00610352	-0.0140381
-0.0192261	0.00671387	-0.0125122
-0.0183105	0.00762939	-0.0106812
-0.0177002	0.00946045	-0.00823975
-0.0177002	0.0106812	-0.00701904
-0.0177002	0.0112915	-0.00640869
-0.017395	0.0109863	-0.00640869
-0.0167847	0.0106812	-0.00610352
-0.0164795	0.0109863	-0.00549316
-0.0167847	0.0112915	-0.00549316
-0.017395	0.0115967	-0.00579834
-0.0183105	0.012207	-0.00610352
-0.0192261	0.0125122	-0.00671387
-0.0195313	0.0128174	-0.00671387
-0.0198364	0.0128174	-0.00701904
-0.0198364	0.0128174	-0.00701904
-0.0192261	0.0125122	-0.00671387
-0.0177002	0.0112915	-0.00640869
-0.0164795	0.0100708	-0.00640869
-0.0149536	0.0088501	-0.00610352
-0.0143433	0.00793457	-0.00640869
-0.0137329	0.00732422	-0.00640869
-0.0134277	0.00671387	-0.00671387
-0.0137329	0.00579834	-0.00793457
-0.0143433	0.00488281	-0.00946045
-0.0149536	0.00427246	-0.0106812
-0.015564	0.00457764	-0.0109863
-0.0164795	0.00518799	-0.0112915
-0.0170898	0.00610352	-0.0109863
-0.0180054	0.00671387	-0.0112915
-0.0189209	0.00732422	-0.0115967
-0.0195313	0.00732422	-0.012207
-0.0192261	0.00732422	-0.0119019
-0.0183105	0.00732422	-0.0109863
-0.017395	0.00701904	-0.010376
-0.0167847	0.00701904	-0.00976563
-0.0167847	0.00732422	-0.00946045
-0.0170898	0.00793457	-0.00915527
-0.017395	0.00854492	-0.0088501
-0.0180054	0.00915527	-0.0088501
-0.0180054	0.00976563	-0.00823975
-0.0180054	0.0100708	-0.00793457
-0.0180054	0.00976563	-0.00823975
-0.0180054	0.00976563	-0.00823975
-0.0180054	0.0100708	-0.00793457
-0.0177002	0.00976563	-0.00793457
-0.017395	0.0088501	-0.00854492
-0.0167847	0.00762939	-0.00915527
-0.0164795	0.00671387	-0.00976563
-0.0158691	0.00549316	-0.010376
-0.015564	0.00396729	-0.0115967
-0.015564	0.00244141	-0.0131226
-0.015564	0.00152588	-0.0140381
-0.0164795	0.00152588	-0.0149536
-0.017395	0.00213623	-0.0152588
-0.0180054	0.00213623	-0.0158691
-0.0189209	0.00244141	-0.0164795
-0.0189209	0.00274658	-0.0161743
-0.0183105	0.00305176	-0.0152588
-0.017395	0.00274658	-0.0146484
-0.0161743	0.00274658	-0.0134277
-0.0143433	0.00305176	-0.0112915
-0.0119019	0.00274658	-0.00915527
-0.00854492	0.00213623	-0.00640869
-0.00457764	0.00152588	-0.00305176
-0.000610352	0.0012207	0.000610352
0.00335693	0.0012207	0.00457764
0.00610352	0.00152588	0.00762939
0.00762939	0.00305176	0.0106812
0.00793457	0.00488281	0.0128174
0.00854492	0.00701904	0.015564
0.0088501	0.00915527	0.0180054
0.00915527	0.0112915	0.0204468
0.00915527	0.0134277	0.022583
0.0088501	0.0152588	0.0241089
0.00823975	0.0180054	0.0262451
0.00762939	0.0198364	0.0274658
0.00732422	0.0204468	0.027771
0.00793457	0.0192261	0.0271606
0.00915527	0.0161743	0.0253296
0.0109863	0.0115967	0.022583
0.0131226	0.00579834	0.0189209
0.0152588	-0.00152588	0.0137329
0.0170898	-0.00946045	0.00762939
0.0186157	-0.0180054	0.000610352
0.0198364	-0.0262451	-0.00640869
0.020752	-0.032959	-0.012207
0.0204468	-0.0372314	-0.0167847
0.0192261	-0.0393677	-0.0201416
0.0164795	-0.0393677	-0.0228882
0.0128174	-0.0366211	-0.0238037
0.00762939	-0.0317383	-0.0241089
0.00152588	-0.0253296	-0.0238037
-0.00427246	-0.0186157	-0.0228882
-0.0100708	-0.012207	-0.0222778
-0.015564	-0.00640869	-0.0219727
-0.0198364	-0.00152588	-0.0213623
-0.0234985	0.00305176	-0.0204468
-0.0262451	0.00640869	-0.0198364
-0.0280762	0.00823975	-0.0198364
-0.0286865	0.00915527	-0.0195313
-0.0286865	0.00946045	-0.0192261
-0.0283813	0.00915527	-0.0192261
-0.0280762	0.0088501	-0.0192261
-0.027771	0.0088501	-0.0189209
-0.0274658	0.0088501	-0.0186157
-0.0271606	0.00793457	-0.0192261
-0.0268555	0.00610352	-0.020752
-0.0265503	0.00457764	-0.0219727
-0.0256348	0.00305176	-0.022583
-0.0244141	0.00244141	-0.0219727
-0.0231934	0.00213623	-0.0210571
-0.0213623	0.00213623	-0.0192261
-0.0198364	0.00244141	-0.017395
-0.0186157	0.00366211	-0.0149536
-0.0177002	0.00610352	-0.0115967
-0.017395	0.0106812	-0.00671387
-0.0180054	0.0183105	0.000305176
-0.0204468	0.0283813	0.00793457
-0.0234985	0.0390625	0.015564
-0.0256348	0.0482178	0.022583
-0.0256348	0.0537109	0.0280762
-0.022583	0.0558472	0.0332642
-0.0164795	0.0546265	0.038147
-0.00640869	0.0491333	0.0427246
0.00762939	0.0384521	0.0460815
0.0256348	0.0213623	0.0469971
0.0476074	-0.000915527	0.0466919
0.0720215	-0.0256348	0.0463867
0.0970459	-0.0491333	0.0479126
0.120239	-0.0680542	0.0521851
0.13916	-0.0784302	0.06073
0.151062	-0.0772095	0.0738525
0.154114	-0.0634766	0.0906372
0.1474	-0.038147	0.109253
0.13092	-0.00366211	0.127258
0.106812	0.0366211	0.143433
0.0775146	0.0756836	0.153198
0.0473022	0.106506	0.153809
0.0186157	0.124817	0.143433
-0.00732422	0.1297	0.122375
-0.0289917	0.12085	0.0918579
-0.045166	0.0991821	0.0540161
-0.0546265	0.0668335	0.012207
-0.057373	0.0271606	-0.0302124
-0.055542	-0.0137329	-0.0692749
-0.050354	-0.0509644	-0.101318
-0.0442505	-0.0802612	-0.124512
-0.0387573	-0.0979614	-0.136719
-0.03479	-0.102844	-0.137634
-0.0326538	-0.0964355	-0.129089
-0.0320435	-0.0820923	-0.114136
-0.0323486	-0.0640869	-0.0964355
-0.0332642	-0.0460815	-0.0793457
-0.0335693	-0.0305176	-0.0640869
-0.0332642	-0.0186157	-0.0518799
-0.0317383	-0.0106812	-0.0424194
-0.0296021	-0.00701904	-0.0366211
-0.027771	-0.00671387	-0.0344849
-0.0271606	-0.00854492	-0.0357056
-0.0271606	-0.0109863	-0.038147
-0.027771	-0.0134277	-0.0411987
-0.0292969	-0.0149536	-0.0442505
-0.0308228	-0.0149536	-0.0457764
-0.0323486	-0.0143433	-0.0466919
-0.032959	-0.0143433	-0.0473022
-0.0332642	-0.0149536	-0.0482178
-0.032959	-0.015564	-0.0485229
-0.0314331	-0.0161743	-0.0476074
-0.0286865	-0.0164795	-0.045166
-0.0247192	-0.0170898	-0.0418091
-0.0204468	-0.017395	-0.0378418
-0.0164795	-0.0164795	-0.032959
-0.0125122	-0.0152588	-0.027771
-0.00915527	-0.0140381	-0.0231934
-0.00671387	-0.0119019	-0.0186157
-0.00457764	-0.00915527	-0.0137329
-0.00366211	-0.00610352	-0.00976563
-0.00274658	-0.00366211	-0.00640869
-0.00152588	-0.00213623	-0.00366211
-0.000305176	-0.00152588	-0.00183105
0	-0.00152588	-0.00152588
-0.000610352	-0.00152588	-0.00213623
-0.0012207	-0.00183105	-0.00305176
-0.0012207	-0.00274658	-0.00396729
-0.000610352	-0.00396729	-0.00457764
-0.000305176	-0.00579834	-0.00610352
0	-0.00732422	-0.00732422
-0.000610352	-0.00793457	-0.00854492
-0.00152588	-0.00823975	-0.00976563
-0.00244141	-0.00854492	-0.0109863
-0.00274658	-0.00915527	-0.0119019
-0.00274658	-0.00915527	-0.0119019
-0.00305176	-0.00823975	-0.0112915
-0.00396729	-0.00671387	-0.0106812
-0.00518799	-0.00488281	-0.0100708
-0.00549316	-0.00274658	-0.00823975
-0.00579834	-0.0012207	-0.00701904
-0.00610352	-0.000305176	-0.00640869
-0.00610352	0.000305176	-0.00579834
-0.00579834	0.000305176	-0.00549316
-0.00457764	-0.000305176	-0.00488281
-0.00244141	-0.0012207	-0.00366211
-0.000305176	-0.00244141	-0.00274658
0.00152588	-0.00427246	-0.00274658
0.00244141	-0.00579834	-0.00335693
0.00335693	-0.00762939	-0.00427246
0.00427246	-0.00946045	-0.00518799
0.00549316	-0.0109863	-0.00549316
0.00640869	-0.0112915	-0.00488281
0.00671387	-0.0109863	-0.00427246
0.00701904	-0.0100708	-0.00305176
0.00732422	-0.0088501	-0.00152588
0.00732422	-0.00823975	-0.000915527
0.00701904	-0.00823975	-0.0012207
0.00701904	-0.00823975	-0.0012207
0.00732422	-0.00823975	-0.000915527
0.00762939	-0.00854492	-0.000915527
0.00823975	-0.00915527	-0.000915527
0.0088501	-0.010376	-0.00152588
0.00946045	-0.0119019	-0.00244141
0.0100708	-0.0137329	-0.00366211
0.0109863	-0.0158691	-0.00488281
0.0125122	-0.0186157	-0.00610352
0.0143433	-0.0213623	-0.00701904
0.0158691	-0.0241089	-0.00823975
0.0170898	-0.0271606	-0.0100708
0.0183105	-0.0302124	-0.0119019
0.0192261	-0.0326538	-0.0134277
0.0192261	-0.0344849	-0.0152588
0.0186157	-0.0354004	-0.0167847
0.0177002	-0.0357056	-0.0180054
0.0164795	-0.0360107	-0.0195313
0.0158691	-0.0360107	-0.0201416
0.015564	-0.0354004	-0.0198364
0.0158691	-0.0341797	-0.0183105
0.0158691	-0.032959	-0.0170898
0.0161743	-0.0320435	-0.0158691
0.0177002	-0.0323486	-0.0146484
0.0201416	-0.0332642	-0.0131226
0.022583	-0.0341797	-0.0115967
0.0250244	-0.0354004	-0.010376
0.0271606	-0.0375366	-0.010376
0.0296021	-0.0402832	-0.0106812
0.0323486	-0.043335	-0.0109863
0.03479	-0.0463867	-0.0115967
0.0375366	-0.0488281	-0.0112915
0.0402832	-0.0509644	-0.0106812
0.0421143	-0.0518799	-0.00976563
0.043335	-0.0524902	-0.00915527
0.0439453	-0.0527954	-0.0088501
0.0430298	-0.0531006	-0.0100708
0.0408936	-0.0534058	-0.0125122
0.038147	-0.0537109	-0.015564
0.0344849	-0.0543213	-0.0198364
0.0308228	-0.0540161	-0.0231934
0.0268555	-0.0537109	-0.0268555
0.0228882	-0.0537109	-0.0308228
0.0195313	-0.0543213	-0.03479
0.0167847	-0.0546265	-0.0378418
0.0158691	-0.0546265	-0.0387573
0.0164795	-0.0527954	-0.0363159
0.0183105	-0.0497437	-0.0314331
0.020752	-0.0454712	-0.0247192
0.0231934	-0.0405884	-0.017395
0.0253296	-0.0350952	-0.00976563
0.0268555	-0.0286865	-0.00183105
0.027771	-0.0222778	0.00549316
0.0280762	-0.0161743	0.0119019
0.0274658	-0.010376	0.0170898
0.0253296	-0.00549316	0.0198364
0.0219727	-0.0012207	0.020752
0.0177002	0.00305176	0.020752
0.0131226	0.00671387	0.0198364
0.00854492	0.0100708	0.0186157
0.00396729	0.012207	0.0161743
0	0.0143433	0.0143433
-0.00366211	0.0161743	0.0125122
-0.00701904	0.0170898	0.0100708
-0.00946045	0.0180054	0.00854492
-0.0106812	0.0177002	0.00701904
-0.0119019	0.0170898	0.00518799
-0.0128174	0.0161743	0.00335693
-0.0128174	0.0152588	0.00244141
-0.0131226	0.0149536	0.00183105
-0.0143433	0.0146484	0.000305176
-0.0161743	0.0146484	-0.00152588
-0.0183105	0.0152588	-0.00305176
-0.0204468	0.0167847	-0.00366211
-0.022583	0.0192261	-0.00335693
-0.0247192	0.0219727	-0.00274658
-0.0262451	0.0250244	-0.0012207
-0.0271606	0.0271606	0
-0.0271606	0.0289917	0.00183105
-0.0268555	0.0299072	0.00305176
-0.0262451	0.0296021	0.00335693
-0.0250244	0.0286865	0.00366211
-0.0234985	0.0268555	0.00335693
-0.0219727	0.0247192	0.00274658
-0.0201416	0.0219727	0.00183105
-0.0192261	0.0183105	-0.000915527
-0.0195313	0.0149536	-0.00457764
-0.0204468	0.0119019	-0.00854492
-0.0216675	0.00915527	-0.0125122
-0.0222778	0.00701904	-0.0152588
-0.0231934	0.00518799	-0.0180054
-0.0241089	0.00427246	-0.0198364
-0.0250244	0.00457764	-0.0204468
-0.0262451	0.00518799	-0.0210571
-0.0271606	0.00640869	-0.020752
-0.0271606	0.00854492	-0.0186157
-0.0265503	0.0109863	-0.015564
-0.0250244	0.0128174	-0.012207
-0.0228882	0.0143433	-0.00854492
-0.0213623	0.015564	-0.00579834
-0.0201416	0.0164795	-0.00366211
-0.0195313	0.017395	-0.00213623
-0.0189209	0.017395	-0.00152588
-0.0183105	0.0167847	-0.00152588
-0.0177002	0.0161743	-0.00152588
-0.0167847	0.015564	-0.0012207
-0.0167847	0.0146484	-0.00213623
-0.017395	0.0134277	-0.00396729
-0.0183105	0.0125122	-0.00579834
-0.0186157	0.012207	-0.00640869
-0.0183105	0.012207	-0.00610352
-0.0177002	0.0125122	-0.00518799
-0.0170898	0.0131226	-0.00396729
-0.0164795	0.0134277	-0.00305176
-0.015564	0.0137329	-0.00183105
-0.0140381	0.0137329	-0.000305176
-0.0125122	0.0137329	0.0012207
-0.0112915	0.0140381	0.00274658
-0.0100708	0.0140381	0.00396729
-0.0088501	0.0137329	0.00488281
-0.00762939	0.0128174	0.00518799
-0.00671387	0.0115967	0.00488281
-0.00671387	0.0106812	0.00396729
-0.00701904	0.0100708	0.00305176
-0.00701904	0.00946045	0.00244141
-0.00701904	0.00946045	0.00244141
-0.00762939	0.00976563	0.00213623
-0.00793457	0.010376	0.00244141
-0.00793457	0.0115967	0.00366211
-0.00701904	0.0128174	0.00579834
-0.00610352	0.0140381	0.00793457
-0.00518799	0.0146484	0.00946045
-0.00427246	0.0149536	0.0106812
-0.00305176	0.0149536	0.0119019
-0.00213623	0.0152588	0.0131226
-0.00152588	0.0152588	0.0137329
-0.000915527	0.0140381	0.0131226
-0.000305176	0.0125122	0.012207
0	0.0106812	0.0106812
0.000305176	0.00915527	0.00946045
0	0.00762939	0.00762939
0	0.00610352	0.00610352
0	0.00457764	0.00457764
-0.000305176	0.00457764	0.00427246
-0.000305176	0.00518799	0.00488281
-0.000305176	0.00518799	0.00488281
0	0.00457764	0.00457764
0	0.00427246	0.00427246
0	0.00366211	0.00366211
-0.000610352	0.00366211	0.00305176
-0.000915527	0.00427246	0.00335693
-0.000915527	0.00488281	0.00396729
-0.000915527	0.00518799	0.00427246
-0.0012207	0.00518799	0.00396729
-0.00183105	0.00549316	0.00366211
-0.00244141	0.00640869	0.00396729
-0.00305176	0.00793457	0.00488281
-0.00305176	0.0100708	0.00701904
-0.00274658	0.0115967	0.0088501
-0.00213623	0.0125122	0.010376
-0.00183105	0.0131226	0.0112915
-0.00183105	0.0131226	0.0112915
-0.0012207	0.0119019	0.0106812
-0.000610352	0.0100708	0.00946045
-0.000305176	0.00854492	0.00823975
0.000305176	0.00640869	0.00671387
0.000610352	0.00396729	0.00457764
0.00152588	0.00183105	0.00335693
0.00213623	0.000610352	0.00274658
0.00244141	0.000610352	0.00305176
0.00244141	0.00152588	0.00396729
0.00274658	0.00274658	0.00549316
0.00305176	0.00366211	0.00671387
0.00366211	0.00427246	0.00793457
0.00427246	0.00488281	0.00915527
0.00457764	0.00610352	0.0106812
0.00457764	0.00640869	0.0109863
0.00457764	0.00610352	0.0106812
0.00457764	0.00427246	0.0088501
0.00518799	0.00152588	0.00671387
0.00549316	-0.00152588	0.00396729
0.00610352	-0.00457764	0.00152588
0.00671387	-0.00640869	0.000305176
0.00640869	-0.00732422	-0.000915527
0.00427246	-0.00671387	-0.00244141
0.0012207	-0.00610352	-0.00488281
-0.00244141	-0.00579834	-0.00823975
-0.00579834	-0.00610352	-0.0119019
-0.00854492	-0.00640869	-0.0149536
-0.0115967	-0.00671387	-0.0183105
-0.0143433	-0.00671387	-0.0210571
-0.0167847	-0.00640869	-0.0231934
-0.0189209	-0.00579834	-0.0247192
-0.0192261	-0.00488281	-0.0241089
-0.0177002	-0.00427246	-0.0219727
-0.0146484	-0.00396729	-0.0186157
-0.0112915	-0.00335693	-0.0146484
-0.00793457	-0.00183105	-0.00976563
-0.00518799	0	-0.00518799
-0.00274658	0.00244141	-0.000305176
-0.0012207	0.00427246	0.00305176
-0.000305176	0.00579834	0.00549316
0.000305176	0.00610352	0.00640869
0.000305176	0.00518799	0.00549316
-0.000305176	0.00427246	0.00396729
-0.000915527	0.00305176	0.00213623
-0.0012207	0.00244141	0.0012207
-0.00152588	0.00213623	0.000610352
-0.0012207	0.00244141	0.0012207
-0.000915527	0.00305176	0.00213623
0	0.00366211	0.00366211
0.000915527	0.00427246	0.00518799
0.00244141	0.00457764	0.00701904
0.00366211	0.00457764	0.00823975
0.00457764	0.00427246	0.0088501
0.00518799	0.00396729	0.00915527
0.00579834	0.00366211	0.00946045
0.00579834	0.00396729	0.00976563
0.00549316	0.00457764	0.0100708
0.00488281	0.00457764	0.00946045
0.00427246	0.00366211	0.00793457
0.00427246	0.00335693	0.00762939
0.00396729	0.00366211	0.00762939
0.00366211	0.00457764	0.00823975
0.00335693	0.00579834	0.00915527
0.00305176	0.00640869	0.00946045
0.00274658	0.00640869	0.00915527
0.00244141	0.00671387	0.00915527
0.00244141	0.00671387	0.00915527
0.00244141	0.00701904	0.00946045
0.00152588	0.00762939	0.00915527
0.000915527	0.00823975	0.00915527
0.000915527	0.00762939	0.00854492
0.000915527	0.00671387	0.00762939
0.00152588	0.00549316	0.00701904
0.00183105	0.00427246	0.00610352
0.00274658	0.00274658	0.00549316
0.00366211	0.000610352	0.00427246
0.00518799	-0.0012207	0.00396729
0.00671387	-0.00335693	0.00335693
0.00762939	-0.00457764	0.00305176
0.00762939	-0.00579834	0.00183105
0.00701904	-0.00701904	0
0.00610352	-0.00762939	-0.00152588
0.00579834	-0.00732422	-0.00152588
0.00549316	-0.00579834	-0.000305176
0.00488281	-0.00396729	0.000915527
0.00427246	-0.00213623	0.00213623
0.00427246	-0.000610352	0.00366211
0.00488281	0.000610352	0.00549316
0.00579834	0.00213623	0.00793457
0.00701904	0.00366211	0.0106812
0.00854492	0.00427246	0.0128174
0.010376	0.00427246	0.0146484
0.0115967	0.00457764	0.0161743
0.0125122	0.00518799	0.0177002
0.0137329	0.00518799	0.0189209
0.0149536	0.00488281	0.0198364
0.0164795	0.00396729	0.0204468
0.0180054	0.00396729	0.0219727
0.0192261	0.00427246	0.0234985
0.0204468	0.00488281	0.0253296
0.0216675	0.00610352	0.027771
0.022583	0.00823975	0.0308228
0.0231934	0.0106812	0.0338745
0.0244141	0.0131226	0.0375366
0.0250244	0.0158691	0.0408936
0.0250244	0.0183105	0.043335
0.0247192	0.020752	0.0454712
0.0244141	0.0228882	0.0473022
0.0250244	0.0244141	0.0494385
0.0259399	0.0247192	0.0506592
0.0271606	0.0228882	0.0500488
0.027771	0.0189209	0.0466919
0.0286865	0.0131226	0.0418091
0.0296021	0.00610352	0.0357056
0.0311279	-0.00213623	0.0289917
0.0332642	-0.0119019	0.0213623
0.0350952	-0.0222778	0.0128174
0.0360107	-0.0317383	0.00427246
0.0363159	-0.0396729	-0.00335693
0.0360107	-0.045166	-0.00915527
0.0350952	-0.0479126	-0.0128174
0.0335693	-0.0479126	-0.0143433
0.0302124	-0.0448608	-0.0146484
0.0259399	-0.0393677	-0.0134277
0.0204468	-0.0323486	-0.0119019
0.0143433	-0.0244141	-0.0100708
0.00762939	-0.0158691	-0.00823975
0.00152588	-0.00762939	-0.00610352
-0.00396729	-0.000305176	-0.00427246
-0.00915527	0.00579834	-0.00335693
-0.0137329	0.0100708	-0.00366211
-0.0164795	0.012207	-0.00427246
-0.017395	0.0125122	-0.00488281
-0.0164795	0.0119019	-0.00457764
-0.0146484	0.00976563	-0.00488281
-0.0128174	0.00762939	-0.00518799
-0.0109863	0.00579834	-0.00518799
-0.00854492	0.00335693	-0.00518799
-0.00579834	0.000610352	-0.00518799
-0.00305176	-0.00183105	-0.00488281
-0.000610352	-0.00396729	-0.00457764
0.000915527	-0.00488281	-0.00396729
0.00213623	-0.00488281	-0.00274658
0.00274658	-0.00427246	-0.00152588
0.00274658	-0.00244141	0.000305176
0.00244141	-0.000305176	0.00213623
0.00183105	0.00213623	0.00396729
0.000610352	0.00518799	0.00579834
-0.000610352	0.0088501	0.00823975
-0.00274658	0.0143433	0.0115967
-0.00549316	0.022583	0.0170898
-0.00854492	0.0326538	0.0241089
-0.0109863	0.0415039	0.0305176
-0.0112915	0.0482178	0.0369263
-0.00915527	0.0518799	0.0427246
-0.00335693	0.0527954	0.0494385
0.00579834	0.0494385	0.0552368
0.0186157	0.0415039	0.0601196
0.0344849	0.027771	0.0622559
0.0540161	0.00854492	0.062561
0.0759888	-0.0146484	0.0613403
0.0982666	-0.0375366	0.06073
0.119629	-0.0564575	0.0631714
0.13855	-0.0689697	0.0695801
0.152588	-0.071106	0.0814819
0.159302	-0.0604248	0.098877
0.15625	-0.0360107	0.120239
0.143738	0.000915527	0.144653
0.123596	0.045166	0.168762
0.0979614	0.090332	0.188293
0.0692749	0.129395	0.198669
0.0390625	0.157471	0.196533
0.00976563	0.171814	0.18158
-0.0167847	0.171204	0.154419
-0.038147	0.155029	0.116882
-0.0537109	0.123901	0.0701904
-0.0616455	0.0814819	0.0198364
-0.0637817	0.0335693	-0.0302124
-0.0610352	-0.0131226	-0.0741577
-0.0558472	-0.0537109	-0.109558
-0.0488281	-0.0839233	-0.132751
-0.0418091	-0.101318	-0.143127
-0.0350952	-0.106201	-0.141296
-0.0289917	-0.100708	-0.1297
-0.0244141	-0.0878906	-0.112305
-0.020752	-0.0717163	-0.0924683
-0.0177002	-0.0549316	-0.0726318
-0.0149536	-0.0402832	-0.0552368
-0.012207	-0.0289917	-0.0411987
-0.0088501	-0.0222778	-0.0311279
-0.00549316	-0.0189209	-0.0244141
-0.00274658	-0.0177002	-0.0204468
-0.0012207	-0.0177002	-0.0189209
0	-0.0177002	-0.0177002
0.0012207	-0.0183105	-0.0170898
0.00183105	-0.0180054	-0.0161743
0.00152588	-0.0167847	-0.0152588
0.000915527	-0.015564	-0.0146484
0.000305176	-0.0140381	-0.0137329
-0.000305176	-0.0134277	-0.0137329
-0.000610352	-0.0137329	-0.0143433
-0.000305176	-0.0146484	-0.0149536
-0.000305176	-0.0152588	-0.015564
-0.000305176	-0.015564	-0.0158691
-0.000610352	-0.015564	-0.0161743
-0.000915527	-0.015564	-0.0164795
-0.0012207	-0.0152588	-0.0164795
-0.00152588	-0.0143433	-0.0158691
-0.00213623	-0.0137329	-0.0158691
-0.00274658	-0.0128174	-0.015564
-0.00305176	-0.012207	-0.0152588
-0.00335693	-0.0119019	-0.0152588
-0.00305176	-0.0112915	-0.0143433
-0.00244141	-0.0106812	-0.0131226
-0.0012207	-0.0106812	-0.0119019
0	-0.0106812	-0.0106812
0.00183105	-0.0106812	-0.0088501
0.00457764	-0.010376	-0.00579834
0.00732422	-0.00946045	-0.00213623
0.0100708	-0.00854492	0.00152588
0.012207	-0.00854492	0.00366211
0.0137329	-0.0088501	0.00488281
0.0149536	-0.00976563	0.00518799
0.015564	-0.010376	0.00518799
0.0158691	-0.0106812	0.00518799
0.015564	-0.010376	0.00518799
0.0146484	-0.00976563	0.00488281
0.0131226	-0.00946045	0.00366211
0.0115967	-0.00976563	0.00183105
0.0100708	-0.0100708	0
0.00915527	-0.0100708	-0.000915527
0.00854492	-0.00915527	-0.000610352
0.0088501	-0.0088501	0
0.0100708	-0.00976563	0.000305176
0.0115967	-0.0106812	0.000915527
0.0131226	-0.0119019	0.0012207
0.0152588	-0.0128174	0.00244141
0.0177002	-0.0146484	0.00305176
0.0198364	-0.0158691	0.00396729
0.0210571	-0.0161743	0.00488281
0.0216675	-0.0152588	0.00640869
0.0216675	-0.0137329	0.00793457
0.0216675	-0.0128174	0.0088501
0.0213623	-0.012207	0.00915527
0.0204468	-0.0119019	0.00854492
0.0195313	-0.0115967	0.00793457
0.0186157	-0.0112915	0.00732422
0.0183105	-0.0112915	0.00701904
0.0183105	-0.0115967	0.00671387
0.0189209	-0.0128174	0.00610352
0.0201416	-0.0140381	0.00610352
0.0213623	-0.0149536	0.00640869
0.0228882	-0.0161743	0.00671387
0.0244141	-0.0177002	0.00671387
0.0256348	-0.0189209	0.00671387
0.0262451	-0.0201416	0.00610352
0.0265503	-0.0210571	0.00549316
0.0262451	-0.0222778	0.00396729
0.0262451	-0.0241089	0.00213623
0.0268555	-0.0265503	0.000305176
0.0274658	-0.0283813	-0.000915527
0.0286865	-0.0292969	-0.000610352
0.0302124	-0.0308228	-0.000610352
0.0326538	-0.0326538	0
0.0357056	-0.03479	0.000915527
0.0393677	-0.0363159	0.00305176
0.0427246	-0.0378418	0.00488281
0.0457764	-0.0387573	0.00701904
0.0482178	-0.0393677	0.0088501
0.050354	-0.0402832	0.0100708
0.0515747	-0.0418091	0.00976563
0.0521851	-0.043335	0.0088501
0.0518799	-0.0442505	0.00762939
0.0512695	-0.0445557	0.00671387
0.050354	-0.045166	0.00518799
0.0497437	-0.0460815	0.00366211
0.0497437	-0.0473022	0.00244141
0.0497437	-0.0482178	0.00152588
0.0497437	-0.0485229	0.0012207
0.0500488	-0.0491333	0.000915527
0.050354	-0.0509644	-0.000610352
0.0512695	-0.0524902	-0.0012207
0.0518799	-0.0537109	-0.00183105
0.0521851	-0.0540161	-0.00183105
0.0521851	-0.0543213	-0.00213623
0.0521851	-0.0549316	-0.00274658
0.0524902	-0.0561523	-0.00366211
0.0531006	-0.0570679	-0.00396729
0.0537109	-0.0576782	-0.00396729
0.0546265	-0.0576782	-0.00305176
0.0552368	-0.057373	-0.00213623
0.0549316	-0.0567627	-0.00183105
0.0540161	-0.0543213	-0.000305176
0.0524902	-0.0500488	0.00244141
0.0509644	-0.0454712	0.00549316
0.0485229	-0.0402832	0.00823975
0.045166	-0.0344849	0.0106812
0.0408936	-0.0280762	0.0128174
0.0363159	-0.020752	0.015564
0.0317383	-0.0137329	0.0180054
0.0274658	-0.00732422	0.0201416
0.022583	-0.00152588	0.0210571
0.0180054	0.00274658	0.020752
0.0149536	0.00610352	0.0210571
0.0128174	0.0088501	0.0216675
0.0109863	0.0109863	0.0219727
0.0088501	0.0131226	0.0219727
0.00701904	0.0146484	0.0216675
0.00518799	0.0158691	0.0210571
0.00305176	0.0177002	0.020752
0.000610352	0.0195313	0.0201416
-0.00183105	0.0210571	0.0192261
-0.00427246	0.0231934	0.0189209
-0.00671387	0.0250244	0.0183105
-0.00915527	0.0265503	0.017395
-0.0112915	0.0271606	0.0158691
-0.0128174	0.0274658	0.0146484
-0.0131226	0.0265503	0.0134277
-0.0131226	0.0247192	0.0115967
-0.0134277	0.0231934	0.00976563
-0.0140381	0.0222778	0.00823975
-0.0149536	0.0216675	0.00671387
-0.015564	0.0210571	0.00549316
-0.0164795	0.0201416	0.00366211
-0.0177002	0.0195313	0.00183105
-0.0195313	0.0195313	0
-0.0210571	0.0195313	-0.00152588
-0.0222778	0.0201416	-0.00213623
-0.0231934	0.0213623	-0.00183105
-0.0234985	0.022583	-0.000915527
-0.0228882	0.0228882	0
-0.0216675	0.022583	0.000915527
-0.0198364	0.0213623	0.00152588
-0.0177002	0.0201416	0.00244141
-0.0161743	0.0195313	0.00335693
-0.0152588	0.0186157	0.00335693
-0.0152588	0.0180054	0.00274658
-0.0158691	0.0170898	0.0012207
-0.0167847	0.0158691	-0.000915527
-0.0170898	0.0143433	-0.00274658
-0.0170898	0.0131226	-0.00396729
-0.017395	0.012207	-0.00518799
-0.0177002	0.0119019	-0.00579834
-0.0183105	0.012207	-0.00610352
-0.0189209	0.0125122	-0.00640869
-0.0198364	0.0134277	-0.00640869
-0.0201416	0.0143433	-0.00579834
-0.0201416	0.0149536	-0.00518799
-0.0201416	0.015564	-0.00457764
-0.020752	0.0161743	-0.00457764
-0.0216675	0.0161743	-0.00549316
-0.0219727	0.0161743	-0.00579834
-0.0219727	0.0161743	-0.00579834
-0.0219727	0.0161743	-0.00579834
-0.0210571	0.0158691	-0.00518799
-0.0198364	0.0149536	-0.00488281
-0.0183105	0.0143433	-0.00396729
-0.0170898	0.0143433	-0.00274658
-0.0164795	0.0149536	-0.00152588
-0.0164795	0.0158691	-0.000610352
-0.0170898	0.0170898	0
-0.0177002	0.0183105	0.000610352
-0.017395	0.0189209	0.00152588
-0.017395	0.0189209	0.00152588
-0.0170898	0.0189209	0.00183105
-0.017395	0.0189209	0.00152588
-0.017395	0.0186157	0.0012207
-0.0170898	0.0180054	0.000915527
-0.0161743	0.0170898	0.000915527
-0.0152588	0.0164795	0.0012207
-0.0149536	0.0161743	0.0012207
-0.015564	0.0158691	0.000305176
-0.0167847	0.0158691	-0.000915527
-0.0177002	0.015564	-0.00213623
-0.0183105	0.0149536	-0.00335693
-0.0183105	0.0143433	-0.00396729
-0.017395	0.0134277	-0.00396729
-0.0158691	0.0128174	-0.00305176
-0.0143433	0.0125122	-0.00183105
-0.0128174	0.012207	-0.000610352
-0.0106812	0.0119019	0.0012207
-0.0088501	0.0112915	0.00244141
-0.00701904	0.010376	0.00335693
-0.00579834	0.00976563	0.00396729
-0.00579834	0.00946045	0.00366211
-0.00701904	0.00976563	0.00274658
-0.0088501	0.0106812	0.00183105
-0.010376	0.0115967	0.0012207
-0.0112915	0.0119019	0.000610352
-0.0119019	0.0119019	0
-0.012207	0.0112915	-0.000915527
-0.012207	0.0112915	-0.000915527
-0.0112915	0.0112915	0
-0.00976563	0.0115967	0.00183105
-0.00793457	0.0109863	0.00305176
-0.00610352	0.0106812	0.00457764
-0.00488281	0.010376	0.00549316
-0.00427246	0.010376	0.00610352
-0.00457764	0.0100708	0.00549316
-0.00488281	0.00946045	0.00457764
-0.00488281	0.00915527	0.00427246
-0.00488281	0.00915527	0.00427246
-0.00518799	0.00946045	0.00427246
-0.00549316	0.0109863	0.00549316
-0.00549316	0.0125122	0.00701904
-0.00518799	0.0140381	0.0088501
-0.00427246	0.0143433	0.0100708
-0.00366211	0.0146484	0.0109863
-0.00274658	0.0143433	0.0115967
-0.00183105	0.0140381	0.012207
-0.000915527	0.0137329	0.0128174
-0.000610352	0.0128174	0.012207
-0.000610352	0.0115967	0.0109863
-0.000915527	0.00946045	0.00854492
-0.000610352	0.00671387	0.00610352
-0.000305176	0.00488281	0.00457764
0.000305176	0.00366211	0.00396729
0.000305176	0.00335693	0.00366211
0	0.00305176	0.00305176
-0.000610352	0.00274658	0.00213623
-0.0012207	0.00305176	0.00183105
-0.00183105	0.00366211	0.00183105
-0.00244141	0.00549316	0.00305176
-0.00366211	0.00732422	0.00366211
-0.00427246	0.0088501	0.00457764
-0.00427246	0.00976563	0.00549316
-0.00427246	0.0100708	0.00579834
-0.00366211	0.00976563	0.00610352
-0.00366211	0.00946045	0.00579834
-0.00457764	0.00976563	0.00518799
-0.00549316	0.00946045	0.00396729
-0.00549316	0.0088501	0.00335693
-0.00488281	0.00854492	0.00366211
-0.00396729	0.00823975	0.00427246
-0.00366211	0.00793457	0.00427246
-0.00305176	0.00793457	0.00488281
-0.00274658	0.00823975	0.00549316
-0.00213623	0.00823975	0.00610352
-0.00152588	0.00854492	0.00701904
-0.000610352	0.00854492	0.00793457
-0.000305176	0.00854492	0.00823975
-0.000610352	0.00854492	0.00793457
-0.0012207	0.00823975	0.00701904
-0.00183105	0.00823975	0.00640869
-0.00305176	0.00793457	0.00488281
-0.00457764	0.00762939	0.00305176
-0.00610352	0.00762939	0.00152588
-0.00701904	0.00701904	0
-0.00671387	0.00610352	-0.000610352
-0.00579834	0.00518799	-0.000610352
-0.00457764	0.00427246	-0.000305176
-0.00366211	0.00305176	-0.000610352
-0.00244141	0.00152588	-0.000915527
-0.0012207	-0.000305176	-0.00152588
0	-0.00183105	-0.00183105
0.0012207	-0.00305176	-0.00183105
0.00213623	-0.00305176	-0.000915527
0.00213623	-0.00152588	0.000610352
0.00152588	0.000305176	0.00183105
0.000610352	0.00274658	0.00335693
-0.000610352	0.00488281	0.00427246
-0.00183105	0.00671387	0.00488281
-0.00274658	0.00854492	0.00579834
-0.00396729	0.0106812	0.00671387
-0.00457764	0.012207	0.00762939
-0.00518799	0.0128174	0.00762939
-0.00549316	0.0131226	0.00762939
-0.00518799	0.012207	0.00701904
-0.00488281	0.0106812	0.00579834
-0.00396729	0.0088501	0.00488281
-0.00305176	0.00732422	0.00427246
-0.00213623	0.00671387	0.00457764
-0.0012207	0.00640869	0.00518799
0	0.00640869	0.00640869
0.000915527	0.00671387	0.00762939
0.00213623	0.00732422	0.00946045
0.00335693	0.00762939	0.0109863
0.00549316	0.00762939	0.0131226
0.00762939	0.00762939	0.0152588
0.0100708	0.00793457	0.0180054
0.0125122	0.00854492	0.0210571
0.0149536	0.0088501	0.0238037
0.0183105	0.00823975	0.0265503
0.0216675	0.00732422	0.0289917
0.0247192	0.00610352	0.0308228
0.0271606	0.00518799	0.0323486
0.0292969	0.00518799	0.0344849
0.0305176	0.00640869	0.0369263
0.0311279	0.00793457	0.0390625
0.0317383	0.00946045	0.0411987
0.0320435	0.0115967	0.0436401
0.0326538	0.0128174	0.0454712
0.032959	0.0128174	0.0457764
0.032959	0.0112915	0.0442505
0.032959	0.00793457	0.0408936
0.0332642	0.00335693	0.0366211
0.0335693	-0.00274658	0.0308228
0.0335693	-0.0100708	0.0234985
0.0332642	-0.0180054	0.0152588
0.0326538	-0.0268555	0.00579834
0.0320435	-0.0354004	-0.00335693
0.0308228	-0.0424194	-0.0115967
0.0280762	-0.0460815	-0.0180054
0.0247192	-0.0466919	-0.0219727
0.0210571	-0.0445557	-0.0234985
0.017395	-0.0402832	-0.0228882
0.0131226	-0.0344849	-0.0213623
0.00854492	-0.0280762	-0.0195313
0.00366211	-0.0210571	-0.017395
-0.000610352	-0.0140381	-0.0146484
-0.00366211	-0.00793457	-0.0115967
-0.00640869	-0.00335693	-0.00976563
-0.00854492	-0.000305176	-0.0088501
-0.0100708	0.00183105	-0.00823975
-0.0115967	0.00335693	-0.00823975
-0.0128174	0.00396729	-0.0088501
-0.0134277	0.00366211	-0.00976563
-0.0137329	0.00274658	-0.0109863
-0.0143433	0.00244141	-0.0119019
-0.0149536	0.00244141	-0.0125122
-0.015564	0.00244141	-0.0131226
-0.0158691	0.00213623	-0.0137329
-0.0158691	0.00183105	-0.0140381
-0.0164795	0.00183105	-0.0146484
-0.017395	0.00183105	-0.015564
-0.0177002	0.0012207	-0.0164795
-0.0167847	0	-0.0167847
-0.0146484	-0.00152588	-0.0161743
-0.0125122	-0.00274658	-0.0152588
-0.0109863	-0.00274658	-0.0137329
-0.00976563	-0.00244141	-0.012207
-0.00915527	-0.00152588	-0.0106812
-0.00915527	0.00152588	-0.00762939
-0.00976563	0.00701904	-0.00274658
-0.0112915	0.015564	0.00427246
-0.0137329	0.0271606	0.0134277
-0.0158691	0.0384521	0.022583
-0.0164795	0.0473022	0.0308228
-0.0149536	0.0537109	0.0387573
-0.0106812	0.0570679	0.0463867
-0.00305176	0.0567627	0.0537109
0.00854492	0.0512695	0.0598145
0.0244141	0.0390625	0.0634766
0.0445557	0.020752	0.0653076
0.0680542	-0.00152588	0.0665283
0.0924683	-0.0238037	0.0686646
0.116272	-0.0436401	0.0726318
0.136414	-0.0564575	0.0799561
0.150757	-0.0588989	0.0918579
0.157471	-0.0500488	0.107422
0.155029	-0.0308228	0.124207
0.143738	-0.00274658	0.140991
0.124207	0.0305176	0.154724
0.098877	0.0631714	0.162048
0.0708008	0.0888062	0.159607
0.0421143	0.102844	0.144958
0.0146484	0.10437	0.119019
-0.00946045	0.0930786	0.0836182
-0.0280762	0.0698853	0.0418091
-0.0408936	0.0366211	-0.00427246
-0.0476074	-0.00152588	-0.0491333
-0.0491333	-0.0408936	-0.0900269
-0.0473022	-0.0750732	-0.122375
-0.0442505	-0.100403	-0.144653
-0.0408936	-0.113831	-0.154724
-0.0375366	-0.115356	-0.152893
-0.0350952	-0.105896	-0.140991
-0.0335693	-0.0888062	-0.122375
-0.0335693	-0.067749	-0.101318
-0.0341797	-0.0466919	-0.0808716
-0.0344849	-0.0289917	-0.0634766
-0.032959	-0.0164795	-0.0494385
-0.0296021	-0.00915527	-0.0387573
-0.0253296	-0.00671387	-0.0320435
-0.0204468	-0.00762939	-0.0280762
-0.015564	-0.0109863	-0.0265503
-0.0119019	-0.0149536	-0.0268555
-0.00915527	-0.0180054	-0.0271606
-0.00793457	-0.0201416	-0.0280762
-0.00762939	-0.0204468	-0.0280762
-0.00823975	-0.0192261	-0.0274658
-0.00976563	-0.0167847	-0.0265503
-0.0119019	-0.0134277	-0.0253296
-0.0140381	-0.0100708	-0.0241089
-0.0161743	-0.00701904	-0.0231934
-0.017395	-0.00488281	-0.0222778
-0.017395	-0.00427246	-0.0216675
-0.0167847	-0.00427246	-0.0210571
-0.0158691	-0.00457764	-0.0204468
-0.0143433	-0.00488281	-0.0192261
-0.012207	-0.00518799	-0.017395
-0.0100708	-0.00549316	-0.015564
-0.00793457	-0.00640869	-0.0143433
-0.00610352	-0.00732422	-0.0134277
-0.00457764	-0.00793457	-0.0125122
-0.00335693	-0.00793457	-0.0112915
-0.00244141	-0.00762939	-0.0100708
-0.00183105	-0.00732422	-0.00915527
-0.00183105	-0.00671387	-0.00854492
-0.00274658	-0.00549316	-0.00823975
-0.00396729	-0.00457764	-0.00854492
-0.00518799	-0.00457764	-0.00976563
-0.00610352	-0.00488281	-0.0109863
-0.00671387	-0.00488281	-0.0115967
-0.00671387	-0.00457764	-0.0112915
-0.00610352	-0.00488281	-0.0109863
-0.00549316	-0.00549316	-0.0109863
-0.00427246	-0.00640869	-0.0106812
-0.00274658	-0.00762939	-0.010376
-0.000915527	-0.00854492	-0.00946045
0.000610352	-0.0088501	-0.00823975
0.00152588	-0.0088501	-0.00732422
0.00183105	-0.00915527	-0.00732422
0.00213623	-0.00976563	-0.00762939
0.00213623	-0.010376	-0.00823975
0.00183105	-0.0106812	-0.0088501
0.0012207	-0.0106812	-0.00946045
0.000915527	-0.010376	-0.00946045
0.000915527	-0.0100708	-0.00915527
0.000915527	-0.0100708	-0.00915527
0.00183105	-0.0106812	-0.0088501
0.00335693	-0.0115967	-0.00823975
0.00518799	-0.012207	-0.00701904
0.00701904	-0.0125122	-0.00549316
0.00854492	-0.0125122	-0.00396729
0.00976563	-0.012207	-0.00244141
0.0115967	-0.0115967	0
0.0134277	-0.0112915	0.00213623
0.0149536	-0.0106812	0.00427246
0.0158691	-0.010376	0.00549316
0.0164795	-0.0109863	0.00549316
0.0170898	-0.0119019	0.00518799
0.017395	-0.0131226	0.00427246
0.0177002	-0.0140381	0.00366211
0.0183105	-0.0152588	0.00305176
0.0189209	-0.0164795	0.00244141
0.0192261	-0.0180054	0.0012207
0.0192261	-0.0192261	0
0.0195313	-0.0201416	-0.000610352
0.0201416	-0.0210571	-0.000915527
0.0213623	-0.0216675	-0.000305176
0.0228882	-0.0222778	0.000610352
0.0244141	-0.022583	0.00183105
0.0256348	-0.0234985	0.00213623
0.0265503	-0.0250244	0.00152588
0.0274658	-0.0265503	0.000915527
0.0283813	-0.0283813	0
0.0292969	-0.0305176	-0.0012207
0.0302124	-0.0320435	-0.00183105
0.0308228	-0.0332642	-0.00244141
0.0314331	-0.0344849	-0.00305176
0.0326538	-0.0357056	-0.00305176
0.0338745	-0.0375366	-0.00366211
0.0354004	-0.0387573	-0.00335693
0.0366211	-0.0396729	-0.00305176
0.038147	-0.0411987	-0.00305176
0.039978	-0.0430298	-0.00305176
0.0418091	-0.045166	-0.00335693
0.0436401	-0.0473022	-0.00366211
0.0454712	-0.0488281	-0.00335693
0.0466919	-0.050354	-0.00366211
0.0479126	-0.0521851	-0.00427246
0.0485229	-0.0534058	-0.00488281
0.0491333	-0.0537109	-0.00457764
0.0497437	-0.0534058	-0.00366211
0.0506592	-0.0534058	-0.00274658
0.0518799	-0.0527954	-0.000915527
0.0527954	-0.0518799	0.000915527
0.0537109	-0.050354	0.00335693
0.0546265	-0.0494385	0.00518799
0.0549316	-0.0485229	0.00640869
0.0549316	-0.0476074	0.00732422
0.0549316	-0.0460815	0.0088501
0.0546265	-0.0442505	0.010376
0.0540161	-0.0424194	0.0115967
0.0524902	-0.0405884	0.0119019
0.0509644	-0.0390625	0.0119019
0.0497437	-0.0378418	0.0119019
0.0488281	-0.0360107	0.0128174
0.0473022	-0.0338745	0.0134277
0.0460815	-0.0317383	0.0143433
0.045166	-0.0296021	0.015564
0.0442505	-0.0274658	0.0167847
0.0430298	-0.0244141	0.0186157
0.0405884	-0.020752	0.0198364
0.0375366	-0.0167847	0.020752
0.0344849	-0.0131226	0.0213623
0.0311279	-0.0100708	0.0210571
0.027771	-0.00671387	0.0210571
0.0241089	-0.00366211	0.0204468
0.0198364	-0.000305176	0.0195313
0.0152588	0.00213623	0.017395
0.0109863	0.00366211	0.0146484
0.00762939	0.00488281	0.0125122
0.00457764	0.00579834	0.010376
0.00152588	0.00671387	0.00823975
-0.0012207	0.00732422	0.00610352
-0.00396729	0.00854492	0.00457764
-0.00640869	0.0100708	0.00366211
-0.0088501	0.0119019	0.00305176
-0.010376	0.0134277	0.00305176
-0.0115967	0.0143433	0.00274658
-0.0125122	0.0149536	0.00244141
-0.0137329	0.015564	0.00183105
-0.0146484	0.015564	0.000915527
-0.0161743	0.015564	-0.000610352
-0.0170898	0.0146484	-0.00244141
-0.0170898	0.0128174	-0.00427246
-0.0164795	0.0106812	-0.00579834
-0.0161743	0.00946045	-0.00671387
-0.0161743	0.0088501	-0.00732422
-0.0161743	0.00793457	-0.00823975
-0.0158691	0.00732422	-0.00854492
-0.0146484	0.00671387	-0.00793457
-0.0131226	0.00640869	-0.00671387
-0.0109863	0.00640869	-0.00457764
-0.00915527	0.00640869	-0.00274658
-0.00701904	0.00549316	-0.00152588
-0.00579834	0.00457764	-0.0012207
-0.00457764	0.00335693	-0.0012207
-0.00427246	0.00274658	-0.00152588
-0.00427246	0.00305176	-0.0012207
-0.00457764	0.00335693	-0.0012207
-0.00518799	0.00305176	-0.00213623
-0.00610352	0.00183105	-0.00427246
-0.00701904	0.0012207	-0.00579834
-0.00793457	0.0012207	-0.00671387
-0.00823975	0.0012207	-0.00701904
-0.00854492	0.000305176	-0.00823975
-0.00823975	-0.000610352	-0.0088501
-0.00793457	-0.0012207	-0.00915527
-0.00762939	-0.00152588	-0.00915527
-0.00701904	-0.00152588	-0.00854492
-0.00610352	-0.0012207	-0.00732422
-0.00549316	-0.000915527	-0.00640869
-0.00488281	-0.000305176	-0.00518799
-0.00427246	0.000610352	-0.00366211
-0.00366211	0.00183105	-0.00183105
-0.00335693	0.00274658	-0.000610352
-0.00305176	0.00274658	-0.000305176
-0.00244141	0.00213623	-0.000305176
-0.0012207	0.000610352	-0.000610352
0.000305176	-0.000610352	-0.000305176
0.00152588	-0.00152588	0
0.00244141	-0.00213623	0.000305176
0.00274658	-0.00274658	0
0.00335693	-0.00274658	0.000610352
0.00366211	-0.00274658	0.000915527
0.00366211	-0.00213623	0.00152588
0.00335693	-0.0012207	0.00213623
0.00274658	0	0.00274658
0.00213623	0.0012207	0.00335693
0.00152588	0.00244141	0.00396729
0.00152588	0.00274658	0.00427246
0.00152588	0.00274658	0.00427246
0.00152588	0.00335693	0.00488281
0.00152588	0.00305176	0.00457764
0.00183105	0.00244141	0.00427246
0.00213623	0.00152588	0.00366211
0.00274658	0.0012207	0.00396729
0.00366211	0.00183105	0.00549316
0.00457764	0.00274658	0.00732422
0.00549316	0.00305176	0.00854492
0.00671387	0.00305176	0.00976563
0.00793457	0.00274658	0.0106812
0.00946045	0.00152588	0.0109863
0.0112915	0.000305176	0.0115967
0.012207	-0.000305176	0.0119019
0.0125122	-0.000305176	0.012207
0.012207	-0.000610352	0.0115967
0.0119019	-0.0012207	0.0106812
0.0119019	-0.00183105	0.0100708
0.0112915	-0.00183105	0.00946045
0.0100708	-0.000915527	0.00915527
0.00946045	0.000305176	0.00976563
0.00946045	0.0012207	0.0106812
0.00976563	0.00213623	0.0119019
0.010376	0.00305176	0.0134277
0.0112915	0.00305176	0.0143433
0.0125122	0.00183105	0.0143433
0.0134277	0.000305176	0.0137329
0.0140381	-0.000915527	0.0131226
0.0143433	-0.00183105	0.0125122
0.0149536	-0.00244141	0.0125122
0.0152588	-0.00213623	0.0131226
0.0146484	-0.00152588	0.0131226
0.0137329	-0.000915527	0.0128174
0.0131226	-0.000610352	0.0125122
0.0134277	0.000305176	0.0137329
0.0137329	0.00244141	0.0161743
0.0140381	0.00427246	0.0183105
0.0143433	0.00579834	0.0201416
0.0140381	0.00610352	0.0201416
0.0140381	0.00579834	0.0198364
0.0140381	0.00427246	0.0183105
0.0146484	0.00305176	0.0177002
0.0149536	0.00152588	0.0164795
0.0152588	0	0.0152588
0.0149536	-0.00183105	0.0131226
0.0146484	-0.00335693	0.0112915
0.0137329	-0.00488281	0.0088501
0.0128174	-0.00610352	0.00671387
0.012207	-0.00732422	0.00488281
0.0112915	-0.00823975	0.00305176
0.0100708	-0.00793457	0.00213623
0.00854492	-0.00671387	0.00183105
0.00701904	-0.00518799	0.00183105
0.00640869	-0.00427246	0.00213623
0.00579834	-0.00366211	0.00213623
0.00518799	-0.00274658	0.00244141
0.00488281	-0.00152588	0.00335693
0.00488281	-0.000915527	0.00396729
0.00518799	-0.000610352	0.00457764
0.00579834	-0.000610352	0.00518799
0.00671387	-0.000915527	0.00579834
0.00762939	-0.00183105	0.00579834
0.0088501	-0.00244141	0.00640869
0.00976563	-0.00305176	0.00671387
0.0100708	-0.00335693	0.00671387
0.0100708	-0.00305176	0.00701904
0.00946045	-0.00244141	0.00701904
0.00854492	-0.00152588	0.00701904
0.00701904	-0.000610352	0.00640869
0.00579834	-0.000915527	0.00488281
0.00427246	-0.000915527	0.00335693
0.00213623	-0.000915527	0.0012207
-0.000610352	-0.000915527	-0.00152588
-0.00335693	-0.00183105	-0.00518799
-0.00488281	-0.00274658	-0.00762939
-0.00610352	-0.00366211	-0.00976563
-0.00701904	-0.00457764	-0.0115967
-0.00732422	-0.00518799	-0.0125122
-0.00701904	-0.00610352	-0.0131226
-0.00610352	-0.00671387	-0.0128174
-0.00488281	-0.00701904	-0.0119019
-0.00427246	-0.00640869	-0.0106812
-0.00335693	-0.00610352	-0.00946045
-0.00183105	-0.00640869	-0.00823975
-0.000915527	-0.00640869	-0.00732422
0	-0.00640869	-0.00640869
0.000610352	-0.00610352	-0.00549316
0.00152588	-0.00610352	-0.00457764
0.00244141	-0.00671387	-0.00427246
0.00366211	-0.00762939	-0.00396729
0.00457764	-0.00762939	-0.00305176
0.00488281	-0.00671387	-0.00183105
0.00488281	-0.00518799	-0.000305176
0.00488281	-0.00427246	0.000610352
0.00427246	-0.00335693	0.000915527
0.00305176	-0.00274658	0.000305176
0.0012207	-0.00183105	-0.000610352
-0.000610352	-0.000915527	-0.00152588
-0.00244141	-0.000305176	-0.00274658
-0.00427246	-0.000305176	-0.00457764
-0.00579834	-0.000610352	-0.00640869
-0.00732422	-0.0012207	-0.00854492
-0.00854492	-0.00183105	-0.010376
-0.00915527	-0.00213623	-0.0112915
-0.00946045	-0.00305176	-0.0125122
-0.00854492	-0.00427246	-0.0128174
-0.00732422	-0.00488281	-0.012207
-0.00549316	-0.00518799	-0.0106812
-0.00335693	-0.00549316	-0.0088501
-0.0012207	-0.00518799	-0.00640869
0.000610352	-0.00488281	-0.00427246
0.00213623	-0.00396729	-0.00183105
0.00366211	-0.00366211	0
0.00488281	-0.00366211	0.0012207
0.00518799	-0.00335693	0.00183105
0.00427246	-0.00274658	0.00152588
0.00244141	-0.00213623	0.000305176
0.000305176	-0.00152588	-0.0012207
-0.00274658	-0.00152588	-0.00427246
-0.00549316	-0.00183105	-0.00732422
-0.00701904	-0.00244141	-0.00946045
-0.00793457	-0.00244141	-0.010376
-0.00823975	-0.00183105	-0.0100708
-0.00732422	-0.00183105	-0.00915527
-0.00579834	-0.00213623	-0.00793457
-0.00305176	-0.00244141	-0.00549316
0.000305176	-0.00244141	-0.00213623
0.00366211	-0.00183105	0.00183105
0.00640869	-0.0012207	0.00518799
0.00854492	-0.000305176	0.00823975
0.0106812	0.000915527	0.0115967
0.0125122	0.00213623	0.0146484
0.0137329	0.00305176	0.0167847
0.0146484	0.00335693	0.0180054
0.0152588	0.00305176	0.0183105
0.0161743	0.00213623	0.0183105
0.0170898	0.00213623	0.0192261
0.0180054	0.00274658	0.020752
0.0195313	0.00274658	0.0222778
0.0219727	0.00213623	0.0241089
0.0241089	0.0012207	0.0253296
0.0256348	0.000915527	0.0265503
0.0268555	0.000305176	0.0271606
0.027771	-0.0012207	0.0265503
0.0283813	-0.00396729	0.0244141
0.0283813	-0.00671387	0.0216675
0.0280762	-0.00915527	0.0189209
0.027771	-0.012207	0.015564
0.0271606	-0.0164795	0.0106812
0.0259399	-0.0213623	0.00457764
0.0247192	-0.0268555	-0.00213623
0.0238037	-0.0323486	-0.00854492
0.0228882	-0.0369263	-0.0140381
0.0219727	-0.0402832	-0.0183105
0.0204468	-0.0427246	-0.0222778
0.0189209	-0.0436401	-0.0247192
0.0167847	-0.043335	-0.0265503
0.0143433	-0.0415039	-0.0271606
0.010376	-0.0375366	-0.0271606
0.00640869	-0.0323486	-0.0259399
0.00213623	-0.0265503	-0.0244141
-0.00152588	-0.0210571	-0.022583
-0.00488281	-0.0158691	-0.020752
-0.00854492	-0.0106812	-0.0192261
-0.0128174	-0.00579834	-0.0186157
-0.0170898	-0.00183105	-0.0189209
-0.0210571	0.0012207	-0.0198364
-0.0247192	0.00305176	-0.0216675
-0.0283813	0.00457764	-0.0238037
-0.0311279	0.00579834	-0.0253296
-0.032959	0.00610352	-0.0268555
-0.0338745	0.00610352	-0.027771
-0.032959	0.00579834	-0.0271606
-0.0305176	0.00518799	-0.0253296
-0.0271606	0.00427246	-0.0228882
-0.0228882	0.00305176	-0.0198364
-0.0186157	0.00152588	-0.0170898
-0.0137329	-0.000305176	-0.0140381
-0.0088501	-0.00244141	-0.0112915
-0.00518799	-0.00396729	-0.00915527
-0.00274658	-0.00549316	-0.00823975
-0.00183105	-0.00671387	-0.00854492
-0.00213623	-0.00701904	-0.00915527
-0.00396729	-0.00579834	-0.00976563
-0.00671387	-0.00183105	-0.00854492
-0.0100708	0.00457764	-0.00549316
-0.0137329	0.0140381	0.000305176
-0.0177002	0.0256348	0.00793457
-0.0213623	0.0369263	0.015564
-0.0234985	0.0463867	0.0228882
-0.0219727	0.0521851	0.0302124
-0.0170898	0.0552368	0.038147
-0.00823975	0.0546265	0.0463867
0.00427246	0.0488281	0.0531006
0.0201416	0.0366211	0.0567627
0.0393677	0.0189209	0.0582886
0.0616455	-0.00244141	0.0592041
0.0857544	-0.0244141	0.0613403
0.109558	-0.0442505	0.0653076
0.13031	-0.0588989	0.0714111
0.145874	-0.0650024	0.0808716
0.154114	-0.0610352	0.0930786
0.154114	-0.0476074	0.106506
0.145874	-0.0274658	0.118408
0.1297	-0.00396729	0.125732
0.108643	0.0177002	0.126343
0.085144	0.032959	0.118103
0.06073	0.0375366	0.0982666
0.0375366	0.0302124	0.067749
0.017395	0.012207	0.0296021
0.000915527	-0.0137329	-0.0128174
-0.0112915	-0.0445557	-0.0558472
-0.0189209	-0.0769043	-0.0958252
-0.022583	-0.105591	-0.128174
-0.0241089	-0.126953	-0.151062
-0.0247192	-0.137329	-0.162048
-0.0262451	-0.134583	-0.160828
-0.0283813	-0.12085	-0.149231
-0.0314331	-0.0985718	-0.130005
-0.03479	-0.071106	-0.105896
-0.0378418	-0.0427246	-0.0805664
-0.0396729	-0.0177002	-0.057373
-0.039978	0.00244141	-0.0375366
-0.0393677	0.0158691	-0.0234985
-0.0369263	0.0219727	-0.0149536
-0.032959	0.0216675	-0.0112915
-0.027771	0.0167847	-0.0109863
-0.0222778	0.0106812	-0.0115967
-0.017395	0.00518799	-0.012207
-0.0140381	0.000915527	-0.0131226
-0.0115967	-0.00152588	-0.0131226
-0.0106812	-0.00213623	-0.0128174
-0.0106812	-0.00213623	-0.0128174
-0.0112915	-0.00152588	-0.0128174
-0.0125122	-0.000915527	-0.0134277
-0.0134277	-0.000915527	-0.0143433
-0.0140381	-0.000915527	-0.0149536
-0.0140381	-0.0012207	-0.0152588
-0.0143433	-0.0012207	-0.015564
-0.0152588	-0.0012207	-0.0164795
-0.0161743	-0.00152588	-0.0177002
-0.0167847	-0.00274658	-0.0195313
-0.0167847	-0.00427246	-0.0210571
