Stethoscope	ECG
-0.0115967	-0.198364
0.0314331	-0.201721
0.0201416	-0.195007
-0.0750732	-0.180664
-0.102844	-0.161438
-0.0222778	-0.140076
0.0985718	-0.118408
0.24292	-0.0982666
0.374451	-0.0817871
0.432129	-0.0695801
0.403442	-0.0610352
0.290222	-0.0546265
0.0888062	-0.050354
-0.162964	-0.0482178
-0.422363	-0.0473022
-0.621948	-0.0466919
-0.722046	-0.0457764
-0.727844	-0.045166
-0.590515	-0.0445557
-0.29541	-0.0445557
0.0802612	-0.0445557
0.457153	-0.0439453
0.760193	-0.0424194
0.898438	-0.0418091
0.824585	-0.0418091
0.591736	-0.0418091
0.276489	-0.039978
-0.0683594	-0.0378418
-0.369263	-0.0357056
-0.561829	-0.03479
-0.640564	-0.0344849
-0.622864	-0.0344849
-0.526733	-0.0341797
-0.357666	-0.0332642
-0.129395	-0.0314331
0.118408	-0.0296021
0.326233	-0.0286865
0.454407	-0.0286865
0.49469	-0.0280762
0.470276	-0.0262451
0.379639	-0.0241089
0.223389	-0.0219727
0.0415039	-0.0201416
-0.137329	-0.0189209
-0.279541	-0.0170898
-0.350342	-0.015564
-0.34729	-0.0152588
-0.282898	-0.0158691
-0.186462	-0.0167847
-0.0680542	-0.017395
0.0509644	-0.0167847
0.138245	-0.0158691
0.184937	-0.0146484
0.184021	-0.0131226
0.155334	-0.0112915
0.111084	-0.00946045
0.0570679	-0.00732422
0.0088501	-0.00549316
-0.039978	-0.00335693
-0.0848389	-0.00152588
-0.102234	-0.000305176
-0.102844	0.000305176
-0.0790405	0.000915527
-0.0344849	0.000610352
0.00305176	0.000305176
0.0271606	0.000915527
0.0341797	0.0012207
0.0238037	0.00183105
0.00640869	0.00213623
-0.0140381	0.00244141
-0.0137329	0.00305176
-0.0012207	0.00396729
0.00213623	0.00488281
0.00518799	0.00549316
0.00335693	0.00579834
0.00854492	0.00610352
0.0183105	0.00701904
0.012207	0.0088501
0.00732422	0.0109863
0.00213623	0.0128174
0.00457764	0.0143433
0.0256348	0.0158691
0.0283813	0.0167847
0.0192261	0.0180054
0.0183105	0.0192261
0.010376	0.0201416
0.00762939	0.020752
-0.00793457	0.0216675
-0.0271606	0.0222778
-0.0314331	0.0234985
-0.0460815	0.0247192
-0.0466919	0.0256348
-0.039978	0.0265503
-0.0390625	0.0280762
-0.0109863	0.0299072
0.0177002	0.0314331
0.0393677	0.032959
0.057373	0.0341797
0.0567627	0.0350952
0.0585938	0.0360107
0.0531006	0.0366211
0.0375366	0.0366211
0.0125122	0.0360107
-0.0317383	0.0350952
-0.065918	0.0338745
-0.0827026	0.032959
-0.0863647	0.0323486
-0.0616455	0.0314331
-0.0393677	0.0308228
-0.0186157	0.0305176
0.0201416	0.0311279
0.0360107	0.0314331
0.0323486	0.0320435
0.0265503	0.0332642
0.0219727	0.0344849
0.0262451	0.0350952
0.0250244	0.0350952
0.0189209	0.03479
0.00823975	0.0335693
-0.00762939	0.0320435
-0.00915527	0.0299072
-0.00518799	0.027771
-0.0088501	0.0244141
-0.00518799	0.020752
0.00427246	0.0177002
0.00976563	0.0149536
0.015564	0.0115967
0.00579834	0.00793457
-0.012207	0.00427246
-0.015564	0.000915527
-0.00366211	-0.00213623
0.0143433	-0.00488281
0.0219727	-0.00732422
0.0161743	-0.00946045
0.00427246	-0.0112915
-0.00793457	-0.0128174
-0.0213623	-0.0143433
-0.0271606	-0.0164795
-0.0292969	-0.0186157
-0.0253296	-0.0201416
-0.0256348	-0.0213623
-0.0247192	-0.0228882
-0.0180054	-0.0241089
-0.0125122	-0.0256348
0.00183105	-0.0268555
0.0262451	-0.0280762
0.0445557	-0.0280762
0.045166	-0.0274658
0.0350952	-0.0271606
0.0253296	-0.0268555
0.0210571	-0.0271606
0.012207	-0.0265503
-0.00366211	-0.0250244
-0.0201416	-0.0238037
-0.0256348	-0.022583
-0.0170898	-0.0222778
-0.000915527	-0.022583
0.00915527	-0.0231934
0.00671387	-0.0228882
0.0012207	-0.0222778
-0.0183105	-0.0222778
-0.0463867	-0.0228882
-0.0640869	-0.0244141
-0.0720215	-0.0256348
-0.0671387	-0.0268555
-0.0567627	-0.0286865
-0.0491333	-0.0296021
-0.0134277	-0.0292969
0.0128174	-0.0283813
0.0735474	-0.0271606
0.304565	-0.0262451
0.436096	-0.0250244
0.439758	-0.0234985
0.271606	-0.0219727
-0.0497437	-0.0204468
-0.313721	-0.0195313
-0.499573	-0.0195313
-0.580444	-0.0192261
-0.557251	-0.0183105
-0.442505	-0.0170898
-0.207825	-0.0164795
0.0656128	-0.0161743
0.297241	-0.0158691
0.445557	-0.0149536
0.518494	-0.0137329
0.517273	-0.0131226
0.427856	-0.0128174
0.292053	-0.0125122
0.101929	-0.012207
-0.088501	-0.012207
-0.238647	-0.0131226
-0.35614	-0.0140381
-0.395203	-0.0137329
-0.374756	-0.0125122
-0.305786	-0.0112915
-0.169067	-0.010376
-0.0411987	-0.00946045
0.0674438	-0.00854492
0.170288	-0.00793457
0.221558	-0.00762939
0.241089	-0.00793457
0.22522	-0.00854492
0.143127	-0.00854492
0.0537109	-0.00823975
-0.0289917	-0.00762939
-0.098877	-0.00732422
-0.120544	-0.00671387
-0.126648	-0.00579834
-0.124207	-0.00549316
-0.078125	-0.00549316
-0.0262451	-0.00488281
0.0100708	-0.00457764
0.0497437	-0.00579834
0.0634766	-0.00823975
0.0592041	-0.0109863
0.0579834	-0.0125122
0.032959	-0.0131226
0.00457764	-0.0134277
-0.00762939	-0.0140381
-0.0250244	-0.0143433
-0.022583	-0.0140381
-0.00366211	-0.012207
-0.00579834	-0.0100708
-0.000610352	-0.00823975
0.0167847	-0.00732422
0.0274658	-0.00701904
0.0372314	-0.00762939
0.0170898	-0.00854492
-0.0238037	-0.00915527
-0.0384521	-0.0088501
-0.0390625	-0.00854492
-0.0405884	-0.0088501
-0.0350952	-0.00976563
-0.0271606	-0.0100708
-0.00579834	-0.00946045
0.0204468	-0.00915527
0.0326538	-0.00854492
0.0326538	-0.00793457
0.0271606	-0.00732422
0.0271606	-0.00701904
0.0283813	-0.00732422
0.017395	-0.00823975
-0.00213623	-0.00915527
-0.017395	-0.00946045
-0.0256348	-0.0088501
-0.0219727	-0.00823975
-0.00946045	-0.00854492
-0.00549316	-0.0088501
-0.0109863	-0.00915527
-0.012207	-0.00915527
-0.00793457	-0.0088501
-0.00579834	-0.00854492
0.0012207	-0.00854492
0.00671387	-0.0088501
0.0100708	-0.00946045
0.0170898	-0.00976563
0.020752	-0.0106812
0.00946045	-0.0109863
0	-0.0100708
0.00823975	-0.00823975
0.0204468	-0.00762939
0.020752	-0.00823975
-0.0012207	-0.0088501
-0.0341797	-0.00854492
-0.045166	-0.00823975
-0.043335	-0.00823975
-0.0415039	-0.0088501
-0.0289917	-0.00946045
-0.0167847	-0.00976563
-0.000305176	-0.0100708
0.0299072	-0.0100708
0.0485229	-0.010376
0.0515747	-0.00976563
0.0463867	-0.00854492
0.0317383	-0.00732422
0.0183105	-0.00640869
0.017395	-0.00640869
0.00305176	-0.00701904
-0.0149536	-0.00732422
-0.0210571	-0.00762939
-0.0393677	-0.00762939
-0.055542	-0.00762939
-0.0585938	-0.00762939
-0.0561523	-0.00823975
-0.0320435	-0.00854492
-0.00335693	-0.00823975
0.00946045	-0.00732422
0.0198364	-0.00640869
0.0289917	-0.00549316
0.0369263	-0.00457764
0.0515747	-0.00396729
0.0531006	-0.00305176
0.0354004	-0.00183105
0.0222778	-0.000915527
0.00274658	-0.000305176
-0.0195313	0
-0.0198364	0
-0.0265503	-0.000305176
-0.0357056	-0.000915527
-0.0256348	-0.00152588
-0.0161743	-0.00213623
-0.00701904	-0.00335693
-0.00152588	-0.00518799
-0.00732422	-0.00701904
-0.00946045	-0.00823975
0.000305176	-0.00823975
0.00671387	-0.00793457
0.00274658	-0.00732422
0.0109863	-0.00701904
0.0119019	-0.00671387
0.0149536	-0.00671387
0.0292969	-0.00640869
0.0216675	-0.00549316
0.0161743	-0.00488281
0.0186157	-0.00427246
0.00549316	-0.00335693
0.00579834	-0.00305176
0.00488281	-0.00366211
-0.0125122	-0.00457764
-0.0231934	-0.00549316
-0.0308228	-0.00579834
-0.03479	-0.00640869
-0.0378418	-0.00732422
-0.0405884	-0.00793457
-0.0411987	-0.00823975
-0.0222778	-0.00854492
0.00762939	-0.00793457
0.0259399	-0.00671387
0.0491333	-0.00579834
0.0689697	-0.00457764
0.0650024	-0.00396729
0.0515747	-0.00396729
0.0201416	-0.00396729
-0.0259399	-0.00366211
-0.0494385	-0.00366211
-0.0616455	-0.00396729
-0.0646973	-0.00457764
-0.0515747	-0.00457764
-0.0354004	-0.00366211
-0.0109863	-0.0012207
0.0180054	0.00183105
0.0424194	0.00549316
0.0576782	0.00946045
0.0558472	0.0140381
0.0469971	0.0192261
0.0335693	0.0238037
0.0140381	0.027771
-0.00457764	0.0311279
-0.0238037	0.0338745
-0.0274658	0.0363159
-0.00732422	0.0384521
0.0177002	0.0402832
0.0137329	0.0424194
-0.0177002	0.0448608
-0.0390625	0.0482178
-0.0534058	0.0518799
-0.0650024	0.0546265
-0.0564575	0.0564575
-0.043335	0.0579834
-0.0189209	0.0585938
0.0265503	0.0579834
0.0515747	0.055542
0.057373	0.0509644
0.0637817	0.0436401
0.0473022	0.0344849
0.0274658	0.0244141
0.0231934	0.0152588
0.000915527	0.00732422
-0.0164795	0
-0.0109863	-0.00640869
-0.0161743	-0.0115967
-0.0222778	-0.0158691
-0.0201416	-0.017395
-0.0259399	-0.0164795
-0.0189209	-0.0158691
0	-0.0161743
0.00823975	-0.0180054
0.0164795	-0.0198364
0.0228882	-0.0219727
0.0241089	-0.0247192
0.0228882	-0.0271606
0.00823975	-0.0286865
-0.0195313	-0.0305176
-0.038147	-0.0326538
-0.043335	-0.0338745
-0.038147	-0.0338745
-0.0222778	-0.032959
-0.0140381	-0.0311279
-0.0125122	-0.0292969
0.00244141	-0.027771
0.0219727	-0.0262451
0.038147	-0.0250244
0.0506592	-0.0234985
0.0402832	-0.0228882
0.0183105	-0.022583
0.00335693	-0.0219727
-0.012207	-0.020752
-0.0256348	-0.0195313
-0.0326538	-0.0180054
-0.0354004	-0.015564
-0.0219727	-0.0109863
-0.0012207	-0.00518799
0.0143433	0.0012207
0.0326538	0.00854492
0.0466919	0.0189209
0.0454712	0.032959
0.0238037	0.0500488
-0.0137329	0.0689697
-0.0534058	0.0888062
-0.0671387	0.109558
-0.0595093	0.131226
-0.0509644	0.153503
-0.038147	0.176086
-0.0259399	0.198059
-0.00762939	0.21698
0.0292969	0.230713
0.0631714	0.238037
0.0808716	0.237427
0.0927734	0.227051
0.0970459	0.207214
0.0909424	0.177307
0.0741577	0.137329
0.0250244	0.0897217
-0.0427246	0.0378418
-0.0906372	-0.0137329
-0.123596	-0.0619507
-0.132751	-0.104675
-0.107117	-0.138245
-0.0741577	-0.161133
-0.0411987	-0.172424
0.00549316	-0.173645
-0.0158691	-0.16571
-0.112	-0.150757
-0.126343	-0.131531
-0.0390625	-0.111694
0.0820923	-0.0930786
0.233765	-0.0769043
0.383301	-0.0646973
0.453186	-0.0561523
0.42511	-0.0500488
0.307617	-0.0463867
0.0952148	-0.0439453
-0.186768	-0.0424194
-0.449829	-0.0418091
-0.623779	-0.0411987
-0.68512	-0.0402832
-0.629272	-0.0387573
-0.454712	-0.0369263
-0.217896	-0.0350952
0.0421143	-0.0326538
0.319519	-0.0302124
0.549011	-0.0286865
0.694275	-0.0280762
0.737305	-0.0274658
0.656433	-0.0259399
0.44342	-0.0247192
0.127563	-0.0247192
-0.196838	-0.0250244
-0.446777	-0.0250244
-0.578003	-0.0250244
-0.585327	-0.0247192
-0.507202	-0.0234985
-0.379639	-0.0216675
-0.217896	-0.0195313
-0.0408936	-0.017395
0.137329	-0.0158691
0.280457	-0.0149536
0.354614	-0.0149536
0.368347	-0.0149536
0.338745	-0.0143433
0.270386	-0.0134277
0.177612	-0.0125122
0.0674438	-0.0115967
-0.0601196	-0.010376
-0.174866	-0.00915527
-0.239868	-0.00793457
-0.266418	-0.00671387
-0.259705	-0.00579834
-0.210571	-0.00427246
-0.124512	-0.00213623
-0.0210571	-0.000610352
0.0759888	-0.000610352
0.137939	-0.000915527
0.169373	-0.000915527
0.178833	-0.000305176
0.157471	0
0.107422	0.000610352
0.0427246	0.0012207
-0.0189209	0.00274658
-0.0637817	0.00366211
-0.0897217	0.00427246
-0.0994873	0.00457764
-0.0949097	0.00549316
-0.0775146	0.00640869
-0.0482178	0.00793457
-0.0152588	0.00976563
0.0109863	0.0115967
0.0253296	0.0131226
0.0326538	0.0143433
0.0445557	0.0152588
0.0546265	0.015564
0.0424194	0.0158691
0.0109863	0.0152588
-0.0128174	0.0152588
-0.0177002	0.0152588
-0.0137329	0.0152588
-0.00671387	0.015564
-0.00274658	0.0161743
-0.000610352	0.0177002
-0.000610352	0.0195313
0	0.0216675
0.00488281	0.0231934
0.00305176	0.0247192
-0.00305176	0.0259399
-0.000305176	0.0268555
0.00671387	0.0271606
0.0100708	0.0265503
0.00610352	0.0253296
-0.00213623	0.0250244
-0.00823975	0.0256348
-0.0146484	0.0268555
-0.0180054	0.027771
-0.015564	0.0289917
-0.0106812	0.0305176
-0.00671387	0.0323486
-0.0012207	0.0341797
0.00518799	0.0360107
0.0012207	0.0378418
-0.00518799	0.0393677
0.00610352	0.0405884
0.0189209	0.0411987
0.022583	0.0408936
0.0146484	0.039978
0.000915527	0.0393677
-0.00244141	0.0387573
-0.00213623	0.0384521
-0.00823975	0.0378418
-0.00701904	0.0378418
-0.00305176	0.0378418
0.00335693	0.038147
0.0216675	0.0387573
0.0338745	0.0390625
0.0241089	0.0387573
0.00671387	0.0387573
-0.0115967	0.0393677
-0.0152588	0.0393677
-0.0231934	0.0387573
-0.0366211	0.0372314
-0.0375366	0.0350952
-0.03479	0.0323486
-0.0186157	0.0299072
-0.00488281	0.0280762
-0.00762939	0.0250244
-0.00610352	0.0210571
0.0012207	0.0170898
0.0170898	0.0137329
0.032959	0.0106812
0.03479	0.00732422
0.0332642	0.00396729
0.038147	0.0012207
0.0332642	-0.0012207
0.0274658	-0.00305176
0.0109863	-0.00518799
-0.00946045	-0.00732422
-0.0164795	-0.00976563
-0.0320435	-0.012207
-0.0537109	-0.0140381
-0.0613403	-0.0161743
-0.0613403	-0.0183105
-0.045166	-0.0204468
-0.00610352	-0.0216675
0.0299072	-0.0222778
0.0485229	-0.0222778
0.0524902	-0.0219727
0.038147	-0.0216675
0.0238037	-0.0213623
0.0115967	-0.020752
-0.0109863	-0.0201416
-0.0238037	-0.020752
-0.0228882	-0.0222778
-0.0152588	-0.0228882
0	-0.0228882
0.00274658	-0.0228882
-0.00183105	-0.0231934
0.00762939	-0.0238037
0.0161743	-0.0234985
0.0186157	-0.0228882
0.0238037	-0.0216675
0.0170898	-0.0198364
-0.00488281	-0.0180054
-0.0265503	-0.0161743
-0.0509644	-0.0149536
-0.0540161	-0.0143433
-0.0576782	-0.0137329
-0.0622559	-0.0128174
-0.0469971	-0.012207
-0.020752	-0.012207
0.00335693	-0.0119019
0.00579834	-0.0112915
0.00701904	-0.0100708
0.144653	-0.00915527
0.333557	-0.0088501
0.360413	-0.0088501
0.296326	-0.0088501
0.0720215	-0.00854492
-0.179138	-0.00854492
-0.348816	-0.0088501
-0.464172	-0.00946045
-0.473328	-0.00976563
-0.394592	-0.010376
-0.258789	-0.0109863
-0.0479126	-0.0112915
0.154114	-0.0112915
0.300598	-0.0106812
0.411377	-0.00915527
0.467224	-0.00793457
0.455322	-0.00762939
0.366821	-0.00793457
0.194397	-0.00732422
-0.0143433	-0.00640869
-0.19165	-0.00610352
-0.321655	-0.00610352
-0.405273	-0.00610352
-0.41626	-0.00579834
-0.346069	-0.00579834
-0.218201	-0.00549316
-0.0689697	-0.00457764
0.0616455	-0.00366211
0.159607	-0.00396729
0.236511	-0.00457764
0.274048	-0.00488281
0.250549	-0.00518799
0.179138	-0.00549316
0.0866699	-0.00610352
-0.00396729	-0.00671387
-0.072937	-0.00732422
-0.125732	-0.00823975
-0.159912	-0.00915527
-0.162659	-0.00976563
-0.132751	-0.0106812
-0.0744629	-0.012207
-0.00732422	-0.0131226
0.039978	-0.0140381
0.0732422	-0.0143433
0.0949097	-0.0140381
0.0991821	-0.0131226
0.0912476	-0.0125122
0.0726318	-0.0115967
0.0354004	-0.0106812
-0.00549316	-0.00976563
-0.03479	-0.00793457
-0.0482178	-0.00579834
-0.0543213	-0.00518799
-0.0549316	-0.00579834
-0.0476074	-0.00640869
-0.0296021	-0.00671387
-0.017395	-0.00671387
-0.0119019	-0.00640869
-0.00823975	-0.00610352
-0.000305176	-0.00549316
0.0088501	-0.00488281
0.0216675	-0.00457764
0.0259399	-0.00457764
0.0241089	-0.00518799
0.0274658	-0.00549316
0.0268555	-0.00518799
0.0161743	-0.00518799
-0.00762939	-0.00610352
-0.0271606	-0.00762939
-0.0372314	-0.00915527
-0.0341797	-0.010376
-0.0119019	-0.0112915
0.00518799	-0.0115967
0.00732422	-0.0115967
0.0180054	-0.0119019
0.0265503	-0.0115967
0.0253296	-0.0106812
0.0216675	-0.00946045
0.00366211	-0.00823975
-0.00457764	-0.00762939
0.00274658	-0.00640869
-0.00152588	-0.00488281
-0.00640869	-0.00274658
-0.0088501	-0.00152588
-0.0210571	-0.0012207
-0.022583	-0.00152588
-0.0195313	-0.00244141
-0.0274658	-0.00335693
-0.0231934	-0.00396729
-0.00152588	-0.00427246
0.0253296	-0.00488281
0.0454712	-0.00579834
0.0418091	-0.00701904
0.0149536	-0.00762939
-0.00915527	-0.00793457
-0.0216675	-0.00793457
-0.0201416	-0.00762939
-0.010376	-0.00732422
-0.010376	-0.00701904
-0.00671387	-0.00640869
0.00518799	-0.00579834
0.0195313	-0.00518799
0.0271606	-0.00396729
0.0244141	-0.00213623
0.0192261	-0.000610352
0.0262451	0.000610352
0.0198364	0.00152588
0.00823975	0.00244141
-0.0152588	0.00305176
-0.0265503	0.00274658
-0.0369263	0.00152588
-0.0357056	-0.000610352
-0.0424194	-0.00274658
-0.0390625	-0.00366211
-0.000610352	-0.00396729
0.0143433	-0.00488281
0.0402832	-0.00640869
0.0457764	-0.00762939
0.0262451	-0.00793457
0.0146484	-0.00793457
-0.00366211	-0.00762939
-0.0402832	-0.00762939
-0.0564575	-0.00823975
-0.0631714	-0.00854492
-0.0549316	-0.00854492
-0.0100708	-0.00823975
0.0198364	-0.00732422
0.0448608	-0.00610352
0.0411987	-0.00549316
0.0241089	-0.00518799
0.0198364	-0.00396729
0.000915527	-0.00244141
-0.0204468	-0.000915527
-0.0296021	-0.000610352
-0.020752	-0.000610352
-0.00518799	-0.000915527
0.0125122	-0.00183105
0.0146484	-0.00244141
0.00762939	-0.00274658
0.0167847	-0.00335693
0.0222778	-0.00335693
0.0265503	-0.00335693
0.0268555	-0.00366211
0.0106812	-0.00427246
-0.00762939	-0.00488281
-0.00915527	-0.00518799
-0.0137329	-0.00610352
-0.00396729	-0.00701904
-0.0088501	-0.00793457
-0.0213623	-0.00854492
-0.00274658	-0.00946045
-0.000305176	-0.010376
-0.0119019	-0.0109863
-0.00457764	-0.010376
0.00915527	-0.00946045
0.0247192	-0.00793457
0.0363159	-0.00671387
0.0247192	-0.00549316
0.0100708	-0.00488281
0.00274658	-0.00457764
-0.0134277	-0.00488281
-0.0253296	-0.00488281
-0.0338745	-0.00518799
-0.0454712	-0.00579834
-0.0350952	-0.00701904
-0.0161743	-0.00854492
-0.0088501	-0.00976563
-0.000915527	-0.0100708
0.0012207	-0.0100708
0.00457764	-0.0100708
0.0164795	-0.00915527
0.0228882	-0.00732422
0.0213623	-0.00518799
0.015564	-0.00396729
0.00457764	-0.00305176
-0.00152588	-0.00305176
0.00335693	-0.00396729
0.0012207	-0.00488281
0.0012207	-0.00549316
0.00976563	-0.00671387
0.0128174	-0.00854492
0.00793457	-0.0106812
-0.00671387	-0.0131226
-0.0231934	-0.0152588
-0.0280762	-0.0167847
-0.0170898	-0.0167847
-0.0128174	-0.015564
0.00396729	-0.0140381
0.00305176	-0.0137329
0.010376	-0.0131226
0.0146484	-0.0119019
0.0186157	-0.00976563
0.0180054	-0.00793457
0.0180054	-0.00640869
0.0106812	-0.00549316
0.00854492	-0.00457764
0.00793457	-0.00335693
-0.00518799	-0.00213623
-0.0201416	-0.00183105
-0.0332642	-0.00183105
-0.0418091	-0.0012207
-0.0469971	0
-0.038147	0.000915527
-0.020752	0.00183105
0.00854492	0.00274658
0.0268555	0.00427246
0.0335693	0.00640869
0.0357056	0.00946045
0.0320435	0.012207
0.0341797	0.0152588
0.0192261	0.0180054
0.00946045	0.0210571
-0.00640869	0.0241089
-0.0256348	0.0271606
-0.0305176	0.0305176
-0.0354004	0.0335693
-0.0338745	0.0372314
-0.0402832	0.0405884
-0.027771	0.0436401
-0.00213623	0.0466919
0.0308228	0.0500488
0.0534058	0.0531006
0.0604248	0.0552368
0.0509644	0.0558472
0.0219727	0.0546265
0.00396729	0.0518799
-0.0131226	0.0476074
-0.0283813	0.0418091
-0.03479	0.03479
-0.0341797	0.0271606
-0.010376	0.0189209
0.00732422	0.0106812
0.00762939	0.00213623
0.0137329	-0.00549316
0.00915527	-0.0119019
0.0152588	-0.0167847
0.0100708	-0.020752
-0.0140381	-0.0244141
-0.0164795	-0.027771
-0.0244141	-0.0302124
-0.0146484	-0.0320435
0.00427246	-0.0338745
0.00549316	-0.0354004
0.0265503	-0.0366211
0.0238037	-0.0375366
0.00823975	-0.0378418
-0.0012207	-0.0375366
-0.0198364	-0.0360107
-0.0305176	-0.0344849
-0.0375366	-0.0326538
-0.0289917	-0.0311279
-0.0128174	-0.0292969
-0.00701904	-0.0274658
0.0012207	-0.0262451
0.0143433	-0.0250244
0.043335	-0.0247192
0.0561523	-0.0241089
0.0308228	-0.0241089
0.0222778	-0.0250244
0.00793457	-0.0265503
-0.012207	-0.0268555
-0.0247192	-0.0256348
-0.0567627	-0.0228882
-0.0579834	-0.0183105
-0.0265503	-0.0131226
-0.00518799	-0.00610352
0.0128174	0.00427246
0.0262451	0.0186157
0.0170898	0.0354004
0.000305176	0.0537109
0.00488281	0.0720215
-0.00823975	0.090332
-0.0265503	0.109558
-0.0238037	0.1297
-0.015564	0.150757
0	0.170593
0.032959	0.189209
0.0442505	0.205994
0.0408936	0.219116
0.0482178	0.227661
0.0488281	0.229492
0.0430298	0.222778
0.0308228	0.206604
0.0100708	0.180054
-0.00793457	0.143127
-0.0164795	0.0979614
-0.0326538	0.0469971
-0.057373	-0.00549316
-0.071106	-0.0558472
-0.0756836	-0.100708
-0.0662231	-0.137939
-0.0534058	-0.1651
-0.0442505	-0.180969
-0.0357056	-0.184937
-0.0811768	-0.178223
-0.145569	-0.163574
-0.083313	-0.144958
0.0408936	-0.124512
0.154419	-0.104675
0.281677	-0.0866699
0.368958	-0.0714111
0.379944	-0.0601196
0.343323	-0.0527954
0.245056	-0.0482178
0.0613403	-0.045166
-0.159302	-0.043335
-0.369568	-0.0424194
-0.55481	-0.0424194
-0.634155	-0.0421143
-0.561829	-0.0415039
-0.397644	-0.0396729
-0.196533	-0.0375366
-0.00152588	-0.0357056
0.206604	-0.0341797
0.428162	-0.0326538
0.59082	-0.0314331
0.664978	-0.0302124
0.607605	-0.0292969
0.394287	-0.0280762
0.112305	-0.0268555
-0.150452	-0.0265503
-0.358276	-0.0262451
-0.479736	-0.0259399
-0.499268	-0.0253296
-0.450745	-0.0244141
-0.339966	-0.0231934
-0.177612	-0.0216675
-0.0183105	-0.020752
0.128174	-0.0201416
0.258484	-0.0195313
0.335083	-0.0189209
0.333862	-0.0186157
0.292358	-0.0183105
0.238953	-0.0170898
0.151672	-0.0152588
0.055542	-0.0140381
-0.0421143	-0.0134277
-0.157166	-0.012207
-0.238037	-0.0106812
-0.249023	-0.00976563
-0.223694	-0.00854492
-0.196838	-0.00701904
-0.133972	-0.00549316
-0.0546265	-0.00457764
0.0259399	-0.00366211
0.102844	-0.00335693
0.153809	-0.00274658
0.172729	-0.00244141
0.149841	-0.00213623
0.0961304	-0.0012207
0.0537109	-0.000305176
0.00244141	0.000915527
-0.03479	0.00183105
-0.0463867	0.00244141
-0.0552368	0.00335693
-0.0564575	0.00427246
-0.0561523	0.00488281
-0.0595093	0.00549316
-0.0521851	0.00610352
-0.0384521	0.00610352
-0.0137329	0.00579834
0.0137329	0.00610352
0.0244141	0.00671387
0.0558472	0.00762939
0.0695801	0.00854492
0.0524902	0.00915527
0.0424194	0.0100708
0.0192261	0.0112915
0.00366211	0.0128174
-0.00793457	0.0143433
-0.0180054	0.0152588
-0.0308228	0.015564
-0.0604248	0.0152588
-0.0680542	0.0149536
-0.0588989	0.0146484
-0.0271606	0.0143433
0.00793457	0.0140381
0.0201416	0.0131226
0.0369263	0.012207
0.0579834	0.0115967
0.06073	0.012207
0.0543213	0.0131226
0.0375366	0.0140381
0.00183105	0.0149536
-0.0128174	0.0167847
-0.0222778	0.0195313
-0.032959	0.0222778
-0.0439453	0.0247192
-0.055542	0.0265503
-0.0643921	0.0280762
-0.0372314	0.0296021
-0.0149536	0.0311279
-0.00823975	0.0320435
0.0302124	0.0320435
0.0610352	0.0317383
0.0506592	0.0317383
0.0613403	0.0323486
0.0531006	0.032959
0.00854492	0.032959
-0.0125122	0.0326538
-0.0234985	0.0317383
-0.0357056	0.0314331
-0.0314331	0.0311279
-0.0296021	0.0299072
-0.0186157	0.0274658
0.0109863	0.0250244
0.0292969	0.0244141
0.017395	0.0250244
0.00732422	0.0268555
0.00732422	0.0283813
0.00152588	0.0296021
-0.0167847	0.0308228
-0.0396729	0.0317383
-0.0305176	0.032959
-0.00488281	0.0332642
0.0109863	0.0323486
0.0228882	0.0302124
0.0271606	0.0268555
0.00549316	0.022583
0.0119019	0.0183105
0.0216675	0.0140381
0.000610352	0.0100708
-0.00457764	0.00610352
-0.00549316	0.00183105
-0.0109863	-0.0012207
-0.0250244	-0.00366211
-0.0424194	-0.00579834
-0.0518799	-0.00823975
-0.0534058	-0.010376
-0.0201416	-0.0119019
0.0360107	-0.0131226
0.0662231	-0.0146484
0.078125	-0.015564
0.0894165	-0.0167847
0.0509644	-0.0183105
0.00549316	-0.0198364
-0.0152588	-0.0210571
-0.0546265	-0.0216675
-0.0814819	-0.0222778
-0.0689697	-0.0234985
-0.0512695	-0.0244141
-0.0305176	-0.0253296
-0.00335693	-0.0256348
0.017395	-0.0259399
0.0411987	-0.0259399
0.0549316	-0.0259399
0.0567627	-0.0265503
0.0411987	-0.0268555
0.027771	-0.0265503
0.00854492	-0.0259399
-0.0146484	-0.0253296
-0.0335693	-0.0244141
-0.057373	-0.0234985
-0.0698853	-0.0219727
-0.0830078	-0.020752
-0.0796509	-0.0195313
-0.0332642	-0.0183105
0.00213623	-0.0177002
-0.00305176	-0.0170898
0.0247192	-0.0167847
0.0372314	-0.0158691
0.0152588	-0.0152588
0.18219	-0.0149536
0.375061	-0.0149536
0.378113	-0.0149536
0.285645	-0.0152588
0.0326538	-0.0152588
-0.244446	-0.0149536
-0.406799	-0.0149536
-0.507813	-0.0149536
-0.506287	-0.0152588
-0.387573	-0.0161743
-0.220032	-0.0170898
0.00427246	-0.0177002
0.215759	-0.0170898
0.336914	-0.0161743
0.390015	-0.0149536
0.401001	-0.0128174
0.346069	-0.0112915
0.255127	-0.0106812
0.159607	-0.0106812
0.032959	-0.010376
-0.109558	-0.0100708
-0.205688	-0.0100708
-0.273743	-0.0106812
-0.306396	-0.0119019
-0.290222	-0.0131226
-0.240173	-0.0143433
-0.151367	-0.0146484
-0.03479	-0.0146484
0.0656128	-0.0137329
0.140381	-0.0119019
0.178833	-0.00946045
0.18219	-0.00762939
0.154114	-0.00671387
0.109558	-0.00640869
0.0665283	-0.00671387
0.0250244	-0.00793457
-0.0283813	-0.00976563
-0.071106	-0.0109863
-0.0778198	-0.0112915
-0.0778198	-0.0112915
-0.0790405	-0.0112915
-0.128479	-0.0109863
-0.0775146	-0.00976563
0.135803	-0.00793457
0.131531	-0.00549316
-0.0180054	-0.00427246
-0.00640869	-0.00335693
0.0222778	-0.00213623
0.027771	-0.00213623
0.0723267	-0.00244141
0.0570679	-0.00335693
-0.00518799	-0.00549316
-0.0369263	-0.00793457
-0.0518799	-0.00946045
-0.0564575	-0.010376
-0.0341797	-0.0100708
-0.0128174	-0.0100708
0.00823975	-0.0109863
0.0119019	-0.012207
0.00549316	-0.012207
0.00854492	-0.0112915
0.000305176	-0.010376
-0.00518799	-0.0100708
0.00823975	-0.00946045
0.00854492	-0.00854492
-0.0170898	-0.00701904
-0.0296021	-0.00610352
-0.0292969	-0.00579834
-0.0198364	-0.00671387
-0.00427246	-0.00701904
0	-0.00701904
0.0109863	-0.00701904
0.0186157	-0.00762939
0.0250244	-0.0088501
0.0201416	-0.010376
0.0125122	-0.0119019
0.00183105	-0.012207
0.00579834	-0.012207
0.0167847	-0.0115967
0.0158691	-0.0109863
0.0296021	-0.0106812
0.0338745	-0.0106812
0.0137329	-0.0100708
0	-0.00946045
-0.0360107	-0.00854492
-0.0689697	-0.0088501
-0.0683594	-0.00946045
-0.0595093	-0.0100708
-0.0305176	-0.010376
0.00732422	-0.010376
0.0213623	-0.0106812
0.0177002	-0.0115967
-0.0158691	-0.012207
0.0515747	-0.0125122
0.152283	-0.012207
0.093689	-0.0119019
0.0177002	-0.0115967
-0.0115967	-0.0109863
-0.0540161	-0.010376
-0.0723267	-0.00915527
-0.0518799	-0.00793457
-0.0442505	-0.00671387
-0.0469971	-0.00549316
-0.027771	-0.00549316
-0.0219727	-0.00488281
-0.0152588	-0.00427246
0.0128174	-0.00396729
0.043335	-0.00366211
0.0540161	-0.00396729
0.0521851	-0.00518799
0.0506592	-0.00671387
0.0323486	-0.00823975
0.00488281	-0.00915527
-0.00305176	-0.00976563
-0.00793457	-0.010376
-0.0283813	-0.0106812
-0.0518799	-0.0106812
-0.0421143	-0.0100708
-0.0320435	-0.00946045
-0.0289917	-0.00854492
-0.0305176	-0.00793457
-0.0344849	-0.00701904
-0.0112915	-0.00579834
0.0180054	-0.00427246
0.0311279	-0.00305176
0.043335	-0.00305176
0.0405884	-0.00457764
0.0283813	-0.00732422
0.0256348	-0.0106812
0.0231934	-0.0134277
0.00976563	-0.0149536
-0.00701904	-0.0149536
-0.0180054	-0.0149536
-0.0140381	-0.0158691
-0.00946045	-0.0164795
-0.00701904	-0.0158691
-0.0140381	-0.0137329
-0.00854492	-0.0109863
-0.000915527	-0.00915527
0.00854492	-0.00823975
0.0125122	-0.0088501
0.00701904	-0.00976563
-0.00183105	-0.010376
-0.00305176	-0.0106812
-0.00854492	-0.0106812
-0.0238037	-0.0106812
-0.0350952	-0.0100708
-0.015564	-0.00915527
0.00732422	-0.00793457
0.00457764	-0.00640869
-0.00305176	-0.00488281
0	-0.00335693
0.0131226	-0.00274658
0.0289917	-0.00183105
0.0314331	-0.000610352
0.0308228	0
0.0274658	-0.000610352
0.022583	-0.0012207
0.00579834	-0.0012207
-0.0112915	-0.0012207
-0.0302124	-0.000915527
-0.045166	-0.000610352
-0.0524902	-0.000610352
-0.0375366	-0.000915527
-0.0112915	-0.00183105
0.00183105	-0.00305176
0.0100708	-0.00366211
0.00640869	-0.00396729
0.00396729	-0.00396729
0.0088501	-0.00366211
0.00183105	-0.00305176
-0.012207	-0.00183105
-0.00457764	0.000305176
0.00793457	0.00305176
0.00457764	0.00640869
0.0161743	0.0106812
0.0189209	0.0158691
0.0250244	0.0210571
0.0354004	0.0259399
0.0222778	0.0308228
0.00274658	0.0354004
-0.0170898	0.0390625
-0.0387573	0.0418091
-0.03479	0.0439453
-0.0253296	0.0460815
-0.0244141	0.0485229
-0.00762939	0.0509644
0.00488281	0.0521851
0.00701904	0.0534058
0.0366211	0.0540161
0.0509644	0.0531006
0.0360107	0.0506592
0.0234985	0.0469971
0.00183105	0.0418091
-0.0216675	0.0350952
-0.0378418	0.0268555
-0.0488281	0.0189209
-0.038147	0.0109863
-0.0192261	0.00396729
-0.0106812	-0.00213623
-0.000915527	-0.00640869
0.00793457	-0.00976563
0.0177002	-0.0115967
0.0332642	-0.0131226
0.0216675	-0.0140381
-0.00274658	-0.0152588
-0.0177002	-0.0167847
-0.0250244	-0.0195313
-0.012207	-0.0231934
-0.00579834	-0.027771
-0.015564	-0.0326538
-0.00335693	-0.0363159
0.0177002	-0.0393677
0.0259399	-0.0411987
0.0335693	-0.0418091
0.0308228	-0.0402832
0.0241089	-0.0378418
0.0314331	-0.0354004
0.0305176	-0.032959
0.0134277	-0.0292969
-0.00823975	-0.0253296
-0.0280762	-0.0216675
-0.0366211	-0.0195313
-0.03479	-0.0192261
-0.039978	-0.0198364
-0.0427246	-0.0213623
-0.032959	-0.0228882
-0.0158691	-0.0238037
0.0012207	-0.0234985
0.0125122	-0.0216675
0.0177002	-0.0180054
0.020752	-0.0131226
0.0164795	-0.00640869
0.0119019	0.00244141
0.010376	0.0146484
-0.00549316	0.0299072
-0.0152588	0.0469971
-0.00427246	0.0650024
0.00335693	0.0842285
0.00427246	0.104675
0.00854492	0.126343
0.00854492	0.148621
0.00488281	0.171509
0.00305176	0.194397
0	0.215149
-0.00366211	0.232544
0.00305176	0.244446
0.0128174	0.249329
0.0210571	0.244141
0.0283813	0.227966
0.0253296	0.200806
0.00701904	0.162964
-0.00793457	0.116272
-0.0183105	0.062561
-0.0357056	0.00488281
-0.043335	-0.0527954
-0.0344849	-0.105286
-0.0271606	-0.148926
-0.0177002	-0.18219
-0.0100708	-0.203552
-0.0216675	-0.212097
-0.0445557	-0.208435
-0.110779	-0.195313
-0.174866	-0.175476
-0.113525	-0.152283
0.0250244	-0.127869
0.157471	-0.105286
0.28656	-0.0854492
0.368347	-0.0692749
0.365295	-0.0576782
0.319214	-0.0500488
0.210266	-0.045166
0.0289917	-0.0418091
-0.182495	-0.0396729
-0.386963	-0.038147
-0.516663	-0.0369263
-0.545044	-0.0354004
-0.507202	-0.0335693
-0.388489	-0.0308228
-0.176392	-0.0283813
0.0927734	-0.0259399
0.359802	-0.0244141
0.559692	-0.0241089
0.640564	-0.0241089
0.58136	-0.0238037
0.404968	-0.0234985
0.168457	-0.0234985
-0.0878906	-0.0241089
-0.323792	-0.0253296
-0.491638	-0.0259399
-0.570679	-0.0259399
-0.548401	-0.0253296
-0.414734	-0.0247192
-0.198059	-0.0234985
0.0460815	-0.0213623
0.273438	-0.0183105
0.436401	-0.0158691
0.507202	-0.0140381
0.494995	-0.0131226
0.391235	-0.0119019
0.218201	-0.0106812
0.0302124	-0.00976563
-0.135803	-0.0088501
-0.267029	-0.00854492
-0.351868	-0.00915527
-0.364075	-0.010376
-0.306396	-0.0119019
-0.205994	-0.0128174
-0.0820923	-0.0134277
0.0357056	-0.0137329
0.124512	-0.0143433
0.181274	-0.0149536
0.199585	-0.0149536
0.187683	-0.0140381
0.148926	-0.0125122
0.0793457	-0.0100708
0.0152588	-0.00732422
-0.0344849	-0.00427246
-0.0750732	-0.00152588
-0.103149	0.000305176
-0.127258	0.000915527
-0.136414	0.00152588
-0.110168	0.00213623
-0.0650024	0.00274658
-0.0161743	0.00244141
0.0271606	0.00152588
0.0610352	0
0.0897217	-0.000610352
0.101318	-0.000305176
0.0933838	0.000610352
0.0753784	0.00183105
0.0500488	0.00305176
0.015564	0.00396729
-0.00701904	0.00457764
-0.0137329	0.00518799
-0.0299072	0.00640869
-0.0570679	0.00732422
-0.0814819	0.0088501
-0.0817871	0.0100708
-0.06073	0.0112915
-0.0445557	0.0125122
-0.0335693	0.0140381
-0.00793457	0.015564
0.0219727	0.0164795
0.0476074	0.0170898
0.0610352	0.017395
0.0653076	0.0170898
0.0698853	0.0161743
0.0714111	0.0152588
0.0527954	0.0146484
0.0164795	0.0146484
-0.0201416	0.0149536
-0.0488281	0.0158691
-0.0671387	0.0170898
-0.0750732	0.0189209
-0.0680542	0.0210571
-0.0454712	0.0241089
-0.00854492	0.0268555
0.0238037	0.0289917
0.038147	0.0308228
0.0436401	0.0317383
0.0436401	0.0326538
0.0369263	0.0338745
0.0283813	0.0344849
0.0170898	0.0344849
0.000305176	0.03479
-0.0170898	0.0350952
-0.0256348	0.0350952
-0.0244141	0.03479
-0.0302124	0.0338745
-0.0415039	0.032959
-0.0387573	0.0320435
-0.0231934	0.0311279
-0.00701904	0.0299072
-0.000610352	0.0280762
0	0.0262451
0.00518799	0.0253296
0.0195313	0.0247192
0.0344849	0.0241089
0.0350952	0.0238037
0.0268555	0.0241089
0.0216675	0.0238037
0.0119019	0.0231934
0.00793457	0.0219727
0.00457764	0.020752
-0.0152588	0.0189209
-0.0320435	0.0164795
-0.0280762	0.0131226
-0.0186157	0.0088501
-0.0164795	0.00396729
-0.0128174	-0.000915527
0.00274658	-0.00488281
0.0262451	-0.00854492
0.0405884	-0.0115967
0.0335693	-0.0146484
0.0158691	-0.017395
0.00152588	-0.0183105
-0.00610352	-0.0189209
-0.0137329	-0.0195313
-0.0265503	-0.0204468
-0.0396729	-0.0210571
-0.0463867	-0.0219727
-0.0354004	-0.0231934
-0.0158691	-0.0247192
0.00152588	-0.0262451
0.015564	-0.0274658
0.0186157	-0.0289917
0.0326538	-0.0308228
0.0354004	-0.0320435
0.0271606	-0.0317383
0.0271606	-0.0308228
0.0140381	-0.0292969
0.00762939	-0.027771
0.0112915	-0.0262451
0.000915527	-0.0247192
-0.00701904	-0.0231934
-0.0228882	-0.0216675
-0.0280762	-0.020752
-0.00946045	-0.020752
-0.0119019	-0.020752
-0.0143433	-0.0213623
-0.0161743	-0.0228882
-0.0302124	-0.0241089
-0.0421143	-0.0247192
-0.06073	-0.0253296
-0.0823975	-0.0256348
-0.0723267	-0.0253296
-0.0436401	-0.0250244
-0.0372314	-0.0241089
0.0457764	-0.0228882
0.281677	-0.0219727
0.397034	-0.0210571
0.422668	-0.0204468
0.313416	-0.0201416
0.0524902	-0.0201416
-0.202942	-0.0189209
-0.398254	-0.0177002
-0.524902	-0.0167847
-0.544128	-0.0167847
-0.45105	-0.0164795
-0.263367	-0.015564
-0.0198364	-0.0143433
0.203247	-0.0128174
0.356445	-0.0119019
0.428467	-0.0112915
0.428467	-0.0106812
0.371094	-0.010376
0.271301	-0.0100708
0.132446	-0.010376
-0.0265503	-0.0106812
-0.149231	-0.010376
-0.220642	-0.00976563
-0.248413	-0.00946045
-0.24292	-0.00976563
-0.209656	-0.00976563
-0.158997	-0.00976563
-0.0909424	-0.0088501
-0.0137329	-0.00732422
0.0482178	-0.00640869
0.0924683	-0.00579834
0.118408	-0.00579834
0.119324	-0.00579834
0.0949097	-0.00610352
0.0564575	-0.00671387
0.0088501	-0.00762939
-0.0314331	-0.00915527
-0.0500488	-0.0106812
-0.0454712	-0.0125122
-0.0216675	-0.0143433
0.00793457	-0.0149536
0.0256348	-0.0146484
0.0311279	-0.0137329
0.0302124	-0.0128174
0.0238037	-0.0112915
0.00518799	-0.010376
-0.0228882	-0.00976563
-0.0375366	-0.0088501
-0.0335693	-0.00732422
-0.022583	-0.00671387
-0.00854492	-0.00671387
-0.000305176	-0.00732422
-0.000305176	-0.00793457
-0.00305176	-0.00823975
0.00274658	-0.00793457
0.0100708	-0.00762939
0.00946045	-0.00793457
0.0115967	-0.00854492
0.0186157	-0.00946045
0.0265503	-0.0100708
0.0314331	-0.0112915
0.0189209	-0.0115967
-0.00823975	-0.012207
-0.020752	-0.0134277
-0.0161743	-0.0140381
-0.0164795	-0.0140381
-0.0204468	-0.0137329
-0.0289917	-0.0131226
-0.0271606	-0.0125122
-0.0115967	-0.0119019
0.00518799	-0.0109863
0.0109863	-0.0100708
0.0131226	-0.0088501
0.0180054	-0.00793457
0.0180054	-0.00732422
0.0131226	-0.00671387
-0.00640869	-0.00640869
-0.0146484	-0.00640869
-0.00610352	-0.00610352
0.0088501	-0.00610352
0.0186157	-0.00610352
0.0140381	-0.00671387
0.000305176	-0.00671387
-0.00915527	-0.00640869
-0.0140381	-0.00610352
-0.0143433	-0.00640869
-0.0152588	-0.00640869
-0.0198364	-0.00610352
-0.0167847	-0.00518799
-0.0112915	-0.00457764
-0.00701904	-0.00396729
-0.00457764	-0.00396729
0.00366211	-0.00366211
0.017395	-0.00396729
0.0265503	-0.00488281
0.0250244	-0.00640869
0.0131226	-0.00793457
0.0100708	-0.00946045
0.012207	-0.0112915
0.00915527	-0.0134277
0.00366211	-0.0158691
-0.00549316	-0.0177002
-0.0119019	-0.0183105
-0.0112915	-0.0189209
-0.00854492	-0.0192261
-0.0115967	-0.0183105
-0.017395	-0.0164795
-0.0137329	-0.0140381
0.00335693	-0.0112915
0.0210571	-0.00762939
0.0234985	-0.00457764
0.00762939	-0.00183105
-0.0112915	0.000305176
-0.0152588	0.00152588
-0.00976563	0.00274658
-0.00762939	0.00366211
-0.0152588	0.00549316
-0.0250244	0.00823975
-0.0210571	0.0106812
-0.00640869	0.0131226
0.00152588	0.015564
0.00518799	0.0180054
0.0143433	0.0213623
0.0280762	0.0253296
0.0357056	0.0289917
0.0320435	0.0311279
0.0241089	0.0326538
0.0125122	0.0344849
-0.00152588	0.0363159
-0.00549316	0.0384521
-0.00610352	0.0411987
-0.0115967	0.043335
-0.0192261	0.0445557
-0.0262451	0.0460815
-0.027771	0.0476074
-0.0256348	0.0479126
-0.0231934	0.0460815
-0.0109863	0.0424194
0.00946045	0.0372314
0.0213623	0.0308228
0.0216675	0.0234985
0.0164795	0.015564
0.0100708	0.00793457
0.0109863	0.0012207
0.00732422	-0.00457764
-0.0125122	-0.00915527
-0.0271606	-0.0125122
-0.0234985	-0.0140381
-0.00823975	-0.0143433
0.00915527	-0.0149536
0.0192261	-0.017395
0.0234985	-0.020752
0.0210571	-0.0247192
0.00976563	-0.0274658
-0.00427246	-0.0299072
-0.0167847	-0.032959
-0.0265503	-0.0372314
-0.0247192	-0.0418091
-0.0119019	-0.0445557
0.00915527	-0.0454712
0.0296021	-0.0454712
0.0357056	-0.0442505
0.0283813	-0.0427246
0.0253296	-0.0411987
0.0140381	-0.038147
-0.017395	-0.0344849
-0.0460815	-0.0317383
-0.0552368	-0.0299072
-0.0524902	-0.0286865
-0.0354004	-0.0271606
-0.0189209	-0.0262451
-0.017395	-0.0253296
-0.00640869	-0.0250244
0.0189209	-0.0250244
0.043335	-0.0259399
0.0543213	-0.0268555
0.0543213	-0.0265503
0.0531006	-0.0250244
0.0463867	-0.0210571
0.0314331	-0.0149536
0.0161743	-0.00732422
-0.00946045	0.00152588
-0.0344849	0.012207
-0.0415039	0.0253296
-0.0439453	0.0415039
-0.0469971	0.0598145
-0.0497437	0.0784302
-0.0402832	0.0967407
-0.0302124	0.115356
-0.0265503	0.134888
-0.0183105	0.155945
-0.0106812	0.177307
0.0109863	0.197754
0.0479126	0.215759
0.0714111	0.228882
0.0720215	0.236206
0.0610352	0.235291
0.0421143	0.22522
0.020752	0.204163
0.00488281	0.172119
-0.00854492	0.1297
-0.0360107	0.0793457
-0.0497437	0.0238037
-0.0430298	-0.032959
-0.0457764	-0.0872803
-0.0460815	-0.134583
-0.0393677	-0.171509
-0.0369263	-0.196228
-0.0274658	-0.20813
-0.015564	-0.20813
-0.067749	-0.197144
-0.153503	-0.177917
-0.118713	-0.153809
0.0164795	-0.128174
0.169373	-0.104065
0.310669	-0.0827026
0.392151	-0.065918
0.405273	-0.0534058
0.361023	-0.045166
0.232239	-0.0402832
0.00854492	-0.0372314
-0.259705	-0.0344849
-0.496826	-0.0323486
-0.636597	-0.0308228
-0.667725	-0.0299072
-0.595703	-0.0286865
-0.406189	-0.0265503
-0.128174	-0.0238037
0.184326	-0.0216675
0.470581	-0.0204468
0.665588	-0.020752
0.726013	-0.0216675
0.64209	-0.022583
0.442505	-0.0231934
0.183411	-0.022583
-0.0894165	-0.0222778
-0.332336	-0.0222778
-0.498047	-0.022583
-0.572815	-0.0222778
-0.541382	-0.0210571
-0.427551	-0.0195313
-0.250549	-0.0186157
-0.0274658	-0.0177002
0.194702	-0.0164795
0.360107	-0.015564
0.444031	-0.0146484
0.446472	-0.0140381
0.375671	-0.0134277
0.266113	-0.0131226
0.119019	-0.012207
-0.0393677	-0.0112915
-0.173645	-0.0109863
-0.259705	-0.0112915
-0.298462	-0.0112915
-0.284424	-0.0112915
-0.234375	-0.0115967
-0.152283	-0.0109863
-0.050354	-0.010376
0.0500488	-0.00946045
0.118103	-0.00823975
0.144043	-0.00671387
0.126648	-0.00579834
0.0967407	-0.00518799
0.072937	-0.00457764
0.0546265	-0.00366211
0.0219727	-0.00213623
-0.0259399	-0.000915527
-0.0567627	0
-0.0613403	0.000305176
-0.0537109	0.000915527
-0.0357056	0.0012207
-0.0112915	0.00213623
-0.0012207	0.00305176
0.00152588	0.00396729
0.00701904	0.00457764
0.00732422	0.00518799
0.00488281	0.00579834
0.0183105	0.00610352
0.0274658	0.00640869
0.0219727	0.00701904
0.00732422	0.00823975
-0.0161743	0.00976563
-0.0384521	0.0109863
-0.0311279	0.0125122
-0.0125122	0.0134277
0.00152588	0.0143433
0.0183105	0.0152588
0.0265503	0.0161743
0.0354004	0.0164795
0.0445557	0.0164795
0.0286865	0.0161743
-0.000610352	0.015564
-0.0286865	0.0152588
-0.0494385	0.0152588
-0.045166	0.0161743
-0.0387573	0.0170898
-0.0268555	0.0186157
0.00244141	0.0204468
0.0274658	0.022583
0.050354	0.0247192
0.0500488	0.0265503
0.0286865	0.0286865
0.015564	0.0302124
-0.00823975	0.0308228
-0.0195313	0.0311279
-0.0149536	0.0311279
-0.0228882	0.0311279
-0.0247192	0.0308228
-0.0180054	0.0305176
-0.00396729	0.0305176
0.00427246	0.0308228
0.0143433	0.0314331
0.0219727	0.0326538
0.0146484	0.0344849
0.00946045	0.0357056
-0.00274658	0.0363159
-0.0204468	0.0363159
-0.0216675	0.0366211
-0.0140381	0.0375366
0.00488281	0.0372314
0.0283813	0.0363159
0.0256348	0.03479
0.0112915	0.032959
-0.00274658	0.0314331
-0.0106812	0.0292969
-0.0192261	0.0274658
-0.0268555	0.0262451
-0.0210571	0.0256348
-0.010376	0.0253296
-0.00427246	0.0241089
0.00183105	0.0228882
0.015564	0.0216675
0.0201416	0.0201416
0.0180054	0.0177002
0.0112915	0.0146484
0.00701904	0.0115967
-0.0128174	0.00823975
-0.0289917	0.00488281
-0.0283813	0.000305176
-0.0152588	-0.00457764
-0.00427246	-0.00854492
-0.00823975	-0.0115967
0.00427246	-0.0137329
0.0256348	-0.0158691
0.027771	-0.0177002
0.0088501	-0.0189209
-0.00427246	-0.0204468
-0.00793457	-0.0216675
-0.00457764	-0.0222778
0.00915527	-0.0222778
0.00610352	-0.022583
0.00396729	-0.0234985
0.00457764	-0.0244141
0.00946045	-0.0256348
0.0265503	-0.0265503
0.0299072	-0.0274658
0.0152588	-0.0283813
-0.00396729	-0.0292969
-0.0195313	-0.0299072
-0.027771	-0.0302124
-0.0390625	-0.0305176
-0.045166	-0.0299072
-0.050354	-0.0289917
-0.0317383	-0.027771
-0.00366211	-0.0259399
0.0161743	-0.0241089
0.0283813	-0.0222778
0.0357056	-0.0213623
0.045166	-0.0210571
0.0372314	-0.0210571
0.00579834	-0.0213623
-0.0271606	-0.0216675
-0.0485229	-0.0216675
-0.0598145	-0.0213623
-0.071106	-0.020752
-0.0787354	-0.0198364
-0.0793457	-0.0189209
-0.0558472	-0.0180054
-0.0265503	-0.0170898
0.0695801	-0.0161743
0.305176	-0.015564
0.436707	-0.0149536
0.466003	-0.0146484
0.332031	-0.0149536
0.0396729	-0.0152588
-0.24292	-0.0161743
-0.462952	-0.0177002
-0.595703	-0.0186157
-0.604858	-0.0192261
-0.499878	-0.0195313
-0.288696	-0.0195313
-0.0152588	-0.0189209
0.234375	-0.0180054
0.413513	-0.0177002
0.510559	-0.0170898
0.507202	-0.0164795
0.443726	-0.015564
0.346985	-0.0140381
0.197449	-0.0128174
0.010376	-0.0125122
-0.171204	-0.0131226
-0.315857	-0.0140381
-0.40802	-0.0146484
-0.432739	-0.015564
-0.379944	-0.0161743
-0.279541	-0.0167847
-0.144958	-0.0167847
0.00518799	-0.0164795
0.141907	-0.0161743
0.247498	-0.015564
0.30304	-0.0140381
0.290527	-0.0131226
0.235901	-0.0125122
0.153503	-0.0119019
0.0482178	-0.0112915
-0.045166	-0.0106812
-0.116272	-0.0106812
-0.164185	-0.0112915
-0.1651	-0.0115967
-0.137939	-0.0119019
-0.106506	-0.0119019
-0.0585938	-0.0115967
-0.00183105	-0.0112915
0.0460815	-0.0115967
0.0811768	-0.0125122
0.0930786	-0.0137329
0.0823975	-0.0134277
0.0720215	-0.0125122
0.0552368	-0.0109863
0.0311279	-0.0100708
0.0131226	-0.00915527
-0.0134277	-0.00823975
-0.0454712	-0.00701904
-0.0604248	-0.00549316
-0.0634766	-0.00457764
-0.0656128	-0.00305176
-0.0613403	-0.0012207
-0.0430298	-0.000915527
-0.0158691	-0.00183105
0.0143433	-0.00335693
0.0372314	-0.00488281
0.0479126	-0.00671387
0.0543213	-0.0088501
0.0521851	-0.010376
0.0320435	-0.0115967
0.0112915	-0.012207
0.000305176	-0.0125122
-0.00305176	-0.0131226
-0.00915527	-0.0137329
-0.0305176	-0.0137329
-0.055542	-0.0131226
-0.0595093	-0.0125122
-0.0463867	-0.0115967
-0.0280762	-0.0106812
-0.00610352	-0.00946045
0.0152588	-0.00823975
0.0299072	-0.00732422
0.0454712	-0.00671387
0.050354	-0.00671387
0.0402832	-0.00671387
0.0320435	-0.00701904
0.0152588	-0.00762939
-0.00427246	-0.00823975
-0.00152588	-0.0088501
0.00579834	-0.00976563
-0.00152588	-0.0109863
-0.0177002	-0.012207
-0.0283813	-0.0131226
-0.0405884	-0.0137329
-0.0515747	-0.0140381
-0.0534058	-0.012207
-0.0430298	-0.0100708
-0.0195313	-0.00915527
0.0161743	-0.0088501
0.0479126	-0.00854492
0.0646973	-0.00793457
0.0692749	-0.00762939
0.057373	-0.00762939
0.0427246	-0.00854492
0.0326538	-0.00976563
0.0109863	-0.0106812
-0.0177002	-0.0106812
-0.0384521	-0.010376
-0.0445557	-0.010376
-0.0372314	-0.00946045
-0.0164795	-0.00793457
0.00335693	-0.00579834
0.00396729	-0.00335693
-0.00244141	-0.000915527
-0.0241089	0.00183105
-0.0582886	0.00488281
-0.0796509	0.00732422
-0.078125	0.0100708
-0.0466919	0.0128174
0.00946045	0.0161743
0.0506592	0.0195313
0.0646973	0.0219727
0.0753784	0.0241089
0.0732422	0.0259399
0.0524902	0.027771
0.0283813	0.0292969
-0.00274658	0.0302124
-0.0289917	0.0314331
-0.0350952	0.0335693
-0.0317383	0.0363159
-0.0195313	0.0393677
-0.000915527	0.0424194
0.0149536	0.045166
0.0238037	0.0476074
0.0283813	0.0494385
0.0219727	0.0500488
0	0.0488281
-0.0170898	0.0454712
-0.0180054	0.039978
-0.00976563	0.0332642
-0.000305176	0.0259399
-0.00274658	0.0186157
-0.0119019	0.0112915
-0.012207	0.00396729
-0.0112915	-0.00213623
-0.0268555	-0.00640869
-0.0338745	-0.00946045
-0.0311279	-0.0112915
-0.0244141	-0.0131226
-0.00518799	-0.0146484
0.012207	-0.015564
0.0265503	-0.0167847
0.0482178	-0.0189209
0.0637817	-0.0210571
0.0656128	-0.0238037
0.0479126	-0.0268555
0.00640869	-0.0305176
-0.0299072	-0.0335693
-0.0524902	-0.0357056
-0.062561	-0.0372314
-0.06073	-0.0393677
-0.0570679	-0.0421143
-0.0341797	-0.0442505
0.00762939	-0.0448608
0.039978	-0.0442505
0.0534058	-0.0430298
0.0518799	-0.0421143
0.0408936	-0.0411987
0.0302124	-0.039978
0.0247192	-0.0387573
0.0112915	-0.0366211
-0.00518799	-0.0335693
-0.0137329	-0.0302124
-0.017395	-0.0280762
-0.0271606	-0.0280762
-0.0384521	-0.0292969
-0.0439453	-0.0305176
-0.0378418	-0.0308228
-0.0149536	-0.0305176
0.0128174	-0.0302124
0.0247192	-0.0286865
0.0280762	-0.0256348
0.0289917	-0.0213623
0.0262451	-0.0158691
0.0213623	-0.00732422
0.00274658	0.00488281
-0.0280762	0.0204468
-0.0473022	0.0390625
-0.0552368	0.0592041
-0.0616455	0.0805664
-0.0640869	0.102234
-0.0463867	0.125732
-0.00701904	0.150146
0.0384521	0.174866
0.0750732	0.197449
0.0967407	0.21637
0.10376	0.230408
0.106812	0.237122
0.0958252	0.23407
0.0643921	0.220337
0.0189209	0.195923
-0.0393677	0.161438
-0.0891113	0.117493
-0.112915	0.0656128
-0.12207	0.0100708
-0.119934	-0.045166
-0.103149	-0.0967407
-0.0695801	-0.140381
-0.0314331	-0.173035
0.00976563	-0.193481
0.0387573	-0.202026
-0.0219727	-0.199585
-0.118408	-0.187378
-0.109253	-0.168152
-0.0161743	-0.145264
0.110168	-0.121765
0.26123	-0.0994873
0.397949	-0.0814819
0.456543	-0.0674438
0.418396	-0.0570679
0.288391	-0.0497437
0.0604248	-0.0448608
-0.20752	-0.0421143
-0.446167	-0.0402832
-0.619812	-0.0384521
-0.690613	-0.0363159
-0.645752	-0.0350952
-0.45166	-0.0344849
-0.147095	-0.0344849
0.18158	-0.0344849
0.491028	-0.03479
0.691833	-0.0354004
0.741882	-0.0357056
0.640564	-0.0357056
0.413208	-0.0360107
0.123901	-0.0360107
-0.188904	-0.0350952
-0.435181	-0.0335693
-0.56366	-0.032959
-0.592651	-0.0326538
-0.51239	-0.0317383
-0.364685	-0.0305176
-0.164185	-0.0289917
0.0585938	-0.027771
0.235596	-0.0262451
0.352478	-0.0244141
0.387268	-0.0210571
0.371094	-0.0177002
0.323181	-0.0143433
0.223999	-0.0119019
0.106812	-0.00976563
-0.0262451	-0.00762939
-0.133057	-0.00640869
-0.197449	-0.00671387
-0.239563	-0.00823975
-0.227356	-0.0100708
-0.191956	-0.0119019
-0.124817	-0.0125122
-0.027771	-0.012207
0.0518799	-0.0115967
0.115662	-0.0109863
0.134583	-0.00976563
0.134888	-0.00793457
0.125122	-0.00579834
0.0756836	-0.00366211
0.0198364	-0.00213623
-0.0497437	-0.000915527
-0.0900269	0
-0.0830078	0.000915527
-0.0765991	0.000610352
-0.0518799	0.000305176
-0.0378418	0.000305176
-0.020752	0.000610352
0.00396729	0.0012207
0.00946045	0.00183105
0.0262451	0.00274658
0.015564	0.00335693
0.00244141	0.00427246
0.0140381	0.00518799
-0.00518799	0.00640869
-0.0115967	0.00762939
-0.0143433	0.00823975
-0.0106812	0.00854492
0.0186157	0.00915527
0.0265503	0.0109863
0.0338745	0.0134277
0.0372314	0.0149536
0.0338745	0.0158691
0.0592041	0.0167847
0.078125	0.0167847
0.0756836	0.0158691
0.0515747	0.0152588
0.00732422	0.0152588
-0.0424194	0.0143433
-0.102844	0.0131226
-0.159607	0.0125122
-0.190735	0.012207
-0.174561	0.012207
-0.109863	0.0125122
-0.0405884	0.0134277
0.0311279	0.015564
0.088501	0.0186157
0.126953	0.0213623
0.153809	0.0234985
0.1474	0.0250244
0.117188	0.0265503
0.0762939	0.0274658
0.0286865	0.0283813
0.0100708	0.0292969
-0.00518799	0.0305176
-0.0378418	0.0308228
-0.0735474	0.0308228
-0.100098	0.0311279
-0.101013	0.0311279
-0.0814819	0.0314331
-0.0585938	0.0317383
-0.038147	0.0320435
-0.00854492	0.0323486
0.022583	0.0326538
0.0418091	0.0332642
0.055542	0.0335693
0.0570679	0.0335693
0.0448608	0.0332642
0.0323486	0.0323486
0.0158691	0.0311279
0.000305176	0.0299072
-0.00518799	0.0286865
0.00610352	0.0268555
0.0268555	0.0250244
0.0427246	0.0238037
0.03479	0.022583
-0.00213623	0.0216675
-0.0378418	0.0204468
-0.06073	0.0195313
-0.0708008	0.0189209
-0.0686646	0.0183105
-0.0558472	0.0177002
-0.0335693	0.0158691
-0.00946045	0.0125122
0.00946045	0.00793457
0.0216675	0.00335693
0.0256348	-0.0012207
0.0308228	-0.00488281
0.0354004	-0.00854492
0.0354004	-0.0119019
0.0296021	-0.0152588
0.017395	-0.0183105
0.00366211	-0.0213623
-0.00701904	-0.0244141
-0.0134277	-0.0265503
-0.0183105	-0.0280762
-0.0231934	-0.0286865
-0.017395	-0.0299072
-0.00549316	-0.0308228
0.000915527	-0.0320435
0.0088501	-0.0323486
0.0100708	-0.0323486
0.00427246	-0.0317383
0.00213623	-0.0302124
0.00518799	-0.0283813
0.00427246	-0.0271606
-0.00244141	-0.0262451
0.00244141	-0.0259399
0.0216675	-0.0253296
0.0366211	-0.0250244
0.0286865	-0.0247192
0.0128174	-0.0247192
0.00610352	-0.0250244
0.00244141	-0.0247192
-0.00946045	-0.0247192
-0.0405884	-0.0244141
-0.0830078	-0.0241089
-0.104065	-0.0238037
-0.0906372	-0.0234985
-0.0570679	-0.022583
-0.0250244	-0.0210571
0.000610352	-0.0192261
0.017395	-0.0177002
0.00610352	-0.0161743
-0.0180054	-0.0149536
-0.00549316	-0.0140381
0.0985718	-0.0134277
0.299683	-0.0131226
0.421753	-0.0134277
0.447388	-0.0134277
0.249634	-0.0137329
-0.0686646	-0.0137329
-0.342102	-0.0140381
-0.549011	-0.0140381
-0.627441	-0.0134277
-0.574341	-0.0125122
-0.430603	-0.0115967
-0.170288	-0.0115967
0.127869	-0.0119019
0.363159	-0.0125122
0.524597	-0.0137329
0.592651	-0.0149536
0.572205	-0.0158691
0.472412	-0.0164795
0.271912	-0.0170898
0.0195313	-0.0170898
-0.211487	-0.017395
-0.39093	-0.0167847
-0.49469	-0.015564
-0.504761	-0.0149536
-0.436707	-0.0137329
-0.307007	-0.0128174
-0.128479	-0.0125122
0.0567627	-0.012207
0.206299	-0.0115967
0.298767	-0.0109863
0.331726	-0.00976563
0.315247	-0.00854492
0.252686	-0.00762939
0.151367	-0.00701904
0.0274658	-0.00671387
-0.0842285	-0.00671387
-0.157776	-0.00579834
-0.188904	-0.00518799
-0.183411	-0.00488281
-0.157776	-0.00549316
-0.119934	-0.00549316
-0.0570679	-0.00457764
0.0189209	-0.00427246
0.0680542	-0.00427246
0.109253	-0.00427246
0.138855	-0.00457764
0.144653	-0.00518799
0.125427	-0.00610352
0.0750732	-0.00640869
0.00701904	-0.00701904
-0.0476074	-0.00793457
-0.0820923	-0.00854492
-0.101013	-0.00823975
-0.103455	-0.00793457
-0.0991821	-0.00762939
-0.0872803	-0.00762939
-0.0588989	-0.00701904
-0.0201416	-0.00610352
0.00732422	-0.00518799
0.0314331	-0.00488281
0.0543213	-0.00549316
0.0735474	-0.00640869
0.085144	-0.00671387
0.0759888	-0.00701904
0.0473022	-0.00640869
0.00946045	-0.00579834
-0.0192261	-0.00549316
-0.0372314	-0.00610352
-0.0442505	-0.00671387
-0.0509644	-0.00732422
-0.039978	-0.00793457
-0.0167847	-0.00854492
0.00732422	-0.00915527
0.0247192	-0.0100708
0.039978	-0.0112915
0.0509644	-0.012207
0.0552368	-0.012207
0.0497437	-0.0119019
0.0296021	-0.0109863
-0.00457764	-0.0100708
-0.0360107	-0.0088501
-0.0604248	-0.00732422
-0.0653076	-0.00549316
-0.0622559	-0.00457764
-0.0570679	-0.00518799
-0.0561523	-0.00640869
-0.0387573	-0.00732422
0.00274658	-0.00793457
0.0241089	-0.00976563
0.0415039	-0.012207
0.0567627	-0.0143433
0.0708008	-0.0152588
0.0808716	-0.015564
0.0598145	-0.015564
0.0338745	-0.0149536
0.00305176	-0.0140381
-0.0259399	-0.0131226
-0.0350952	-0.0119019
-0.0601196	-0.0112915
-0.0674438	-0.0100708
-0.0601196	-0.00854492
-0.0592041	-0.00640869
-0.0283813	-0.00427246
-0.000305176	-0.00305176
0.0311279	-0.00335693
0.0567627	-0.00427246
0.0561523	-0.00488281
0.0708008	-0.00518799
0.0543213	-0.00579834
0.0198364	-0.00640869
-0.00915527	-0.00732422
-0.057373	-0.00823975
-0.0585938	-0.0100708
-0.0506592	-0.0119019
-0.0585938	-0.0125122
-0.0384521	-0.0115967
-0.0234985	-0.00976563
0.00396729	-0.00793457
0.0323486	-0.00732422
0.0317383	-0.00762939
0.0387573	-0.00793457
0.0262451	-0.00793457
0.0195313	-0.00732422
0.0198364	-0.00671387
0.00579834	-0.00610352
0.0100708	-0.00579834
0.0125122	-0.00518799
0.017395	-0.00549316
0.0286865	-0.00579834
0.0088501	-0.00610352
-0.00732422	-0.00610352
-0.0204468	-0.00549316
-0.0378418	-0.00518799
-0.0283813	-0.00488281
-0.0234985	-0.00457764
-0.0302124	-0.00396729
-0.0180054	-0.00274658
0.00579834	-0.0012207
0.0286865	0.00152588
0.0338745	0.00488281
0.0192261	0.00793457
0.00488281	0.0106812
-0.00549316	0.0134277
-0.0161743	0.0167847
-0.0180054	0.0198364
-0.0115967	0.0216675
-0.00732422	0.022583
-0.000915527	0.0234985
-0.00274658	0.0250244
-0.00976563	0.0268555
-0.00671387	0.0286865
-0.00671387	0.0305176
0.00305176	0.0323486
0.0170898	0.0350952
0.00976563	0.0393677
0.0131226	0.0442505
0.0152588	0.0485229
0.017395	0.0509644
0.0326538	0.0518799
0.0241089	0.0512695
0.0210571	0.0494385
0.0289917	0.0457764
0.00518799	0.0402832
-0.0219727	0.0335693
-0.0564575	0.0256348
-0.0891113	0.0170898
-0.0845337	0.00854492
-0.0732422	0.000610352
-0.0497437	-0.00549316
-0.0195313	-0.010376
0	-0.0134277
0.0314331	-0.0149536
0.0585938	-0.0152588
0.0735474	-0.0152588
0.0720215	-0.0158691
0.0570679	-0.0170898
0.0405884	-0.0186157
0.0216675	-0.020752
0.0161743	-0.0238037
-0.00213623	-0.0280762
-0.0228882	-0.0326538
-0.0280762	-0.0372314
-0.0350952	-0.0408936
-0.0234985	-0.0442505
-0.0170898	-0.0469971
-0.0247192	-0.0482178
-0.0112915	-0.0476074
0.0012207	-0.0457764
0.0134277	-0.0427246
0.0241089	-0.0396729
0.0088501	-0.0366211
0.00579834	-0.0344849
0.0119019	-0.0320435
0.00518799	-0.0296021
0.00366211	-0.0274658
-0.00793457	-0.0259399
-0.0140381	-0.0253296
0.0100708	-0.0250244
0.0140381	-0.0247192
-0.0012207	-0.0247192
-0.00823975	-0.0247192
-0.0286865	-0.0247192
-0.0363159	-0.0241089
-0.0201416	-0.0222778
-0.0216675	-0.0180054
-0.00671387	-0.0119019
0.0213623	-0.00518799
0.0241089	0.00274658
0.0308228	0.0128174
0.0146484	0.0262451
-0.0216675	0.043335
-0.0302124	0.062561
-0.0357056	0.0823975
-0.0341797	0.103455
-0.0204468	0.125427
-0.0195313	0.148315
0.000305176	0.171204
0.0289917	0.193176
0.039978	0.212708
0.0515747	0.228271
0.0604248	0.237122
0.0692749	0.236816
0.0784302	0.22644
0.0753784	0.205078
0.0534058	0.173035
0.0140381	0.13092
-0.0274658	0.0808716
-0.0601196	0.0262451
-0.0915527	-0.0289917
-0.117493	-0.0802612
-0.135498	-0.124512
-0.126343	-0.159302
-0.0869751	-0.182495
-0.055542	-0.193787
-0.0881958	-0.193176
-0.15686	-0.18219
-0.127258	-0.163574
0.0143433	-0.141602
0.184937	-0.118408
0.364075	-0.0967407
0.493774	-0.0784302
0.507202	-0.0640869
0.429382	-0.0537109
0.249329	-0.0466919
-0.0314331	-0.0430298
-0.312805	-0.0411987
-0.53772	-0.0408936
-0.669861	-0.0408936
-0.673828	-0.0402832
-0.56427	-0.0393677
-0.360718	-0.038147
-0.115051	-0.0366211
0.14679	-0.0350952
0.397949	-0.0338745
0.598145	-0.0323486
0.717773	-0.0305176
0.713196	-0.0289917
0.550232	-0.0274658
0.26123	-0.0262451
-0.0585938	-0.0244141
-0.319824	-0.022583
-0.485229	-0.0213623
-0.521545	-0.020752
-0.46875	-0.0201416
-0.397949	-0.0186157
-0.286255	-0.0170898
-0.140381	-0.0161743
0.00946045	-0.0164795
0.150452	-0.0167847
0.240479	-0.0167847
0.297546	-0.0167847
0.317383	-0.0161743
0.281982	-0.0158691
0.224915	-0.0152588
0.136414	-0.0146484
0.0305176	-0.0134277
-0.0561523	-0.0112915
-0.132446	-0.0088501
-0.1828	-0.00671387
-0.202332	-0.00549316
-0.184326	-0.00427246
-0.140381	-0.00335693
-0.0708008	-0.00274658
0.00793457	-0.00274658
0.0543213	-0.00274658
0.0762939	-0.00305176
0.0839233	-0.00335693
0.071106	-0.00366211
0.062561	-0.00335693
0.0405884	-0.00244141
0.012207	-0.000915527
0.00701904	0.000610352
-0.00152588	0.00183105
-0.0186157	0.00244141
-0.0363159	0.00396729
-0.0561523	0.00579834
-0.0527954	0.00762939
-0.0372314	0.00793457
-0.0180054	0.00823975
0.00366211	0.00854492
0.0198364	0.00946045
0.0415039	0.0100708
0.0476074	0.010376
0.0436401	0.0106812
0.0305176	0.0115967
0.00488281	0.0125122
-0.0152588	0.0128174
-0.0299072	0.0131226
-0.0274658	0.0143433
-0.0231934	0.0161743
-0.0280762	0.0177002
-0.0125122	0.0189209
-0.00274658	0.0192261
-0.00915527	0.0192261
-0.00213623	0.0204468
0.00762939	0.0216675
0.0274658	0.0219727
0.0457764	0.0216675
0.0338745	0.0213623
0.00671387	0.0216675
-0.0177002	0.0219727
-0.022583	0.022583
-0.0119019	0.0234985
0.00518799	0.0247192
0.0228882	0.0256348
0.0256348	0.0268555
0.0134277	0.0286865
-0.00549316	0.0305176
-0.0323486	0.0317383
-0.0476074	0.0332642
-0.0476074	0.0350952
-0.0292969	0.0369263
0.00244141	0.038147
0.0128174	0.0393677
0.0137329	0.0396729
0.0241089	0.0396729
0.0186157	0.0393677
0.0137329	0.0387573
0.010376	0.038147
-0.0012207	0.0375366
-0.00366211	0.0372314
-0.00335693	0.0366211
0.00335693	0.0363159
0.0106812	0.0366211
0.0100708	0.0372314
0.00488281	0.0384521
-0.0119019	0.0393677
-0.0253296	0.0396729
-0.0256348	0.0393677
-0.0161743	0.0384521
-0.0012207	0.0375366
0.0164795	0.0366211
0.0292969	0.0350952
0.0326538	0.0332642
0.00976563	0.0308228
-0.0134277	0.0283813
-0.0210571	0.0259399
-0.0115967	0.0241089
0.00762939	0.0219727
0.00823975	0.0189209
-0.0100708	0.0152588
-0.00793457	0.0112915
-0.000305176	0.00732422
-0.0146484	0.00366211
-0.0198364	-0.000305176
-0.0131226	-0.00457764
-0.00640869	-0.00823975
0.0204468	-0.0115967
0.0375366	-0.0146484
0.0375366	-0.0177002
0.032959	-0.0198364
0.0164795	-0.0216675
0.0012207	-0.0234985
-0.0186157	-0.0250244
-0.0421143	-0.0265503
-0.0485229	-0.0268555
-0.0421143	-0.0256348
-0.0308228	-0.0244141
-0.0100708	-0.0250244
0.000305176	-0.0259399
0.00213623	-0.0259399
0.0189209	-0.0265503
0.0323486	-0.027771
0.0320435	-0.0292969
0.0311279	-0.0308228
0.0164795	-0.0314331
0.0088501	-0.0320435
0.0204468	-0.0320435
0.0213623	-0.0317383
0.00274658	-0.0308228
-0.0204468	-0.0292969
-0.0396729	-0.0271606
-0.0540161	-0.0256348
-0.0531006	-0.0234985
-0.0564575	-0.0216675
-0.0531006	-0.0201416
-0.0253296	-0.0198364
-0.00946045	-0.0204468
0.015564	-0.0216675
0.038147	-0.022583
0.0283813	-0.0231934
0.0320435	-0.0222778
0.0296021	-0.0216675
0.00335693	-0.0216675
0.0692749	-0.0222778
0.22644	-0.0222778
0.286865	-0.0210571
0.272827	-0.0189209
0.0909424	-0.017395
-0.16449	-0.0167847
-0.343323	-0.0164795
-0.437622	-0.0161743
-0.433044	-0.0164795
-0.336609	-0.0167847
-0.214539	-0.017395
-0.0363159	-0.0180054
0.198059	-0.0186157
0.35614	-0.0186157
0.424194	-0.0186157
0.42511	-0.0189209
0.351868	-0.0195313
0.23407	-0.0195313
0.0808716	-0.0192261
-0.0930786	-0.0189209
-0.244141	-0.0186157
-0.33783	-0.0192261
-0.360413	-0.0195313
-0.317993	-0.0192261
-0.227051	-0.0183105
-0.115356	-0.0170898
-0.00518799	-0.0167847
0.0952148	-0.0161743
0.177612	-0.0146484
0.22583	-0.0134277
0.227356	-0.0119019
0.194397	-0.0112915
0.141602	-0.0115967
0.0808716	-0.0128174
0.020752	-0.0143433
-0.0515747	-0.0152588
-0.129089	-0.015564
-0.169373	-0.0158691
-0.164185	-0.0161743
-0.129089	-0.0167847
-0.0814819	-0.017395
-0.0335693	-0.017395
0.0271606	-0.0161743
0.0738525	-0.0146484
0.0845337	-0.0134277
0.0793457	-0.0125122
0.0576782	-0.0112915
0.0332642	-0.010376
0.0183105	-0.0100708
0.00457764	-0.0100708
-0.0140381	-0.0106812
-0.0314331	-0.0106812
-0.0424194	-0.010376
-0.0332642	-0.010376
-0.0167847	-0.0109863
-0.0131226	-0.0119019
-0.00457764	-0.0125122
0.0106812	-0.0131226
0.0210571	-0.0134277
0.0323486	-0.0134277
0.0369263	-0.0131226
0.0292969	-0.0125122
0.027771	-0.0128174
0.0195313	-0.0134277
-0.00549316	-0.0137329
-0.032959	-0.0134277
-0.0521851	-0.0134277
-0.0537109	-0.0140381
-0.0424194	-0.0146484
-0.0265503	-0.0152588
-0.00946045	-0.0158691
0.00762939	-0.0164795
0.0311279	-0.0167847
0.0476074	-0.0167847
0.0405884	-0.0158691
0.0271606	-0.0143433
0.00793457	-0.0134277
-0.00610352	-0.0131226
-0.00274658	-0.0125122
-0.0134277	-0.0115967
-0.027771	-0.0109863
-0.0228882	-0.0106812
-0.015564	-0.0109863
0.00762939	-0.0125122
0.0256348	-0.0143433
0.00518799	-0.015564
-0.00823975	-0.0161743
-0.0131226	-0.0164795
-0.0222778	-0.0164795
-0.00854492	-0.0158691
-0.00640869	-0.015564
-0.0146484	-0.015564
-0.00152588	-0.0152588
0.0100708	-0.0146484
0.0195313	-0.0140381
0.0289917	-0.0134277
0.022583	-0.0134277
0.0100708	-0.0128174
0.00427246	-0.012207
0.00213623	-0.012207
0.000610352	-0.0125122
-0.00732422	-0.0125122
-0.00976563	-0.012207
-0.00701904	-0.0115967
-0.00427246	-0.0106812
-0.00701904	-0.010376
-0.0195313	-0.0109863
-0.0244141	-0.0109863
-0.0106812	-0.0115967
0.00152588	-0.0128174
0.00915527	-0.0143433
0.0189209	-0.0152588
0.0228882	-0.0158691
0.0161743	-0.0161743
0.00549316	-0.0152588
-0.00732422	-0.0140381
-0.0167847	-0.0137329
-0.0177002	-0.0140381
-0.022583	-0.0137329
-0.0286865	-0.0125122
-0.0274658	-0.0112915
-0.0164795	-0.0106812
0.00305176	-0.0112915
0.0265503	-0.012207
0.0439453	-0.0140381
0.0418091	-0.0152588
0.0299072	-0.0158691
0.0219727	-0.0152588
0.0189209	-0.0143433
0.017395	-0.0134277
0.00732422	-0.0125122
-0.0109863	-0.0112915
-0.0170898	-0.0100708
-0.00915527	-0.00823975
-0.00610352	-0.00671387
-0.00640869	-0.00579834
-0.0213623	-0.00549316
-0.0454712	-0.00701904
-0.0463867	-0.0088501
-0.0515747	-0.010376
-0.045166	-0.0115967
-0.0115967	-0.0125122
0.00579834	-0.0131226
0.0238037	-0.0131226
0.0460815	-0.0134277
0.0378418	-0.0131226
0.0241089	-0.012207
0.0204468	-0.0112915
0.0140381	-0.00976563
0.00732422	-0.00854492
-0.000305176	-0.00762939
-0.00640869	-0.00732422
-0.00671387	-0.00732422
0.00244141	-0.00762939
0.00915527	-0.00854492
0.00732422	-0.00915527
0.0131226	-0.00946045
0.0222778	-0.00946045
0.0234985	-0.00854492
0.0131226	-0.00671387
-0.020752	-0.00396729
-0.0439453	-0.000915527
-0.0466919	0.00335693
-0.0488281	0.00823975
-0.027771	0.0134277
-0.00701904	0.0186157
-0.00366211	0.0228882
0.0152588	0.0265503
0.020752	0.0296021
0.0137329	0.0320435
0.0231934	0.0344849
0.0146484	0.0357056
0.00579834	0.0369263
0.0183105	0.0393677
0.0204468	0.0418091
0.0140381	0.0430298
0.00762939	0.0439453
-0.00671387	0.0448608
-0.00854492	0.0460815
-0.00396729	0.0460815
-0.0134277	0.045166
-0.0216675	0.0427246
-0.0216675	0.0390625
-0.0244141	0.0335693
-0.0280762	0.027771
-0.0262451	0.0210571
-0.0198364	0.0143433
-0.00488281	0.00762939
0.0161743	0.0012207
0.0213623	-0.00396729
0.0125122	-0.00823975
0.0137329	-0.012207
0.0204468	-0.0158691
0.0302124	-0.0183105
0.0308228	-0.0189209
0.0170898	-0.0201416
0.00579834	-0.0222778
-0.000305176	-0.0250244
-0.00396729	-0.0274658
-0.0112915	-0.0302124
-0.0283813	-0.0332642
-0.0338745	-0.0372314
-0.0262451	-0.0408936
-0.012207	-0.0430298
0.00915527	-0.0439453
0.0213623	-0.0448608
0.020752	-0.045166
0.0201416	-0.0448608
0.0210571	-0.0439453
0.0109863	-0.0415039
-0.00823975	-0.0378418
-0.0268555	-0.0332642
-0.0338745	-0.0292969
-0.027771	-0.0259399
-0.020752	-0.0241089
-0.0177002	-0.0231934
0.00244141	-0.022583
0.0274658	-0.0228882
0.0366211	-0.0241089
0.0405884	-0.0256348
0.0341797	-0.0268555
0.0167847	-0.0265503
0.00762939	-0.0238037
0.00427246	-0.0192261
-0.00396729	-0.0128174
-0.0204468	-0.00427246
-0.0390625	0.00732422
-0.0497437	0.0222778
-0.0494385	0.0408936
-0.0463867	0.0610352
-0.0424194	0.0814819
-0.0323486	0.102234
-0.0125122	0.124207
0.0137329	0.147095
0.0341797	0.169983
0.050354	0.192261
0.06073	0.212097
0.0717163	0.22644
0.085144	0.23407
0.0674438	0.233765
0.0354004	0.223999
0.0134277	0.203857
0.00488281	0.172119
0.00183105	0.1297
-0.0195313	0.0793457
-0.0604248	0.0250244
-0.0952148	-0.0286865
-0.11322	-0.0787354
-0.11261	-0.121765
-0.0811768	-0.155029
-0.0427246	-0.177307
-0.00457764	-0.187683
0	-0.185852
-0.0872803	-0.174866
-0.134888	-0.157471
-0.0686646	-0.136719
0.0448608	-0.115662
0.197144	-0.0964355
0.347595	-0.0799561
0.43335	-0.0668335
0.42572	-0.0570679
0.326843	-0.050354
0.154114	-0.0460815
-0.0796509	-0.043335
-0.318604	-0.0415039
-0.51239	-0.0393677
-0.620117	-0.0366211
-0.616455	-0.0338745
-0.481262	-0.0317383
-0.247803	-0.0302124
-0.0527954	-0.0289917
0.122681	-0.0283813
0.338135	-0.0283813
0.535583	-0.0289917
0.660706	-0.0292969
0.671997	-0.0289917
0.517578	-0.0286865
0.240784	-0.0283813
-0.0540161	-0.0271606
-0.298462	-0.0253296
-0.444031	-0.0234985
-0.494385	-0.0216675
-0.470581	-0.0198364
-0.386047	-0.0180054
-0.282288	-0.0164795
-0.158386	-0.0152588
-0.000305176	-0.0149536
0.158691	-0.0152588
0.297241	-0.015564
0.365601	-0.0158691
0.342712	-0.015564
0.279236	-0.0149536
0.204773	-0.0143433
0.109558	-0.0134277
0.00671387	-0.012207
-0.088501	-0.0109863
-0.177002	-0.010376
-0.224915	-0.00976563
-0.227051	-0.00915527
-0.204468	-0.00854492
-0.147095	-0.00793457
-0.0827026	-0.00732422
-0.0161743	-0.00701904
0.065918	-0.00671387
0.123901	-0.00579834
0.157776	-0.00396729
0.161133	-0.00244141
0.13092	-0.000915527
0.107117	0
0.0613403	0.000610352
-0.0131226	0.000305176
-0.0701904	-0.000305176
-0.116272	-0.000610352
-0.135498	-0.0012207
-0.127869	-0.00152588
-0.115662	-0.00152588
-0.0802612	-0.000610352
-0.0280762	0.0012207
0.0286865	0.00305176
0.0817871	0.00549316
0.0964355	0.00793457
0.0942993	0.0100708
0.0915527	0.0119019
0.0720215	0.0128174
0.0543213	0.0128174
0.0112915	0.0119019
-0.0311279	0.0109863
-0.0457764	0.010376
-0.0653076	0.00976563
-0.0634766	0.00915527
-0.0540161	0.00946045
-0.0531006	0.0100708
-0.0216675	0.0109863
0.00396729	0.0119019
0.0350952	0.0134277
0.0637817	0.015564
0.050354	0.017395
0.0439453	0.0195313
0.0454712	0.0213623
0.0183105	0.0228882
-0.00427246	0.0241089
-0.0195313	0.0250244
-0.0457764	0.0256348
-0.0457764	0.0268555
-0.0479126	0.027771
-0.0482178	0.0292969
-0.0314331	0.0302124
-0.0161743	0.0305176
0.00915527	0.0305176
0.0436401	0.0302124
0.0485229	0.0299072
0.050354	0.0305176
0.050354	0.0317383
0.0201416	0.032959
-0.0180054	0.0341797
-0.0488281	0.0354004
-0.0756836	0.0363159
-0.0650024	0.0369263
-0.022583	0.0378418
-0.00244141	0.0393677
0.0210571	0.0408936
0.0369263	0.0418091
0.0234985	0.0415039
0.0296021	0.0405884
0.0415039	0.0387573
0.0143433	0.0372314
0.000305176	0.0360107
-0.0012207	0.0341797
-0.0170898	0.0320435
-0.00854492	0.0296021
0.0088501	0.0274658
-0.00335693	0.0259399
-0.0012207	0.0244141
0.00305176	0.0219727
-0.00274658	0.0195313
-0.00793457	0.0177002
-0.0180054	0.0161743
-0.0253296	0.0146484
-0.0167847	0.0128174
-0.00762939	0.0100708
-0.00823975	0.00701904
-0.00549316	0.00457764
0.00366211	0.00244141
0.0283813	0.000305176
0.0445557	-0.00183105
0.0402832	-0.00488281
0.0271606	-0.00823975
0.0119019	-0.0112915
-0.0115967	-0.0140381
-0.0344849	-0.0158691
-0.0479126	-0.0180054
-0.0527954	-0.020752
-0.03479	-0.0241089
-0.0125122	-0.0259399
0.00671387	-0.0259399
0.0274658	-0.0256348
0.0415039	-0.0247192
0.0518799	-0.0241089
0.0540161	-0.0238037
0.0393677	-0.0231934
0.0100708	-0.0222778
-0.0244141	-0.0213623
-0.0524902	-0.0210571
-0.0619507	-0.020752
-0.0512695	-0.0201416
-0.0375366	-0.0198364
-0.0192261	-0.0201416
-0.00152588	-0.020752
0.0088501	-0.0213623
0.0180054	-0.0213623
0.0140381	-0.0210571
-0.0012207	-0.0201416
-0.00396729	-0.0195313
0.00305176	-0.0192261
0.00488281	-0.0192261
-0.000610352	-0.0195313
-0.00305176	-0.0192261
-0.0088501	-0.0186157
-0.0125122	-0.0183105
-0.0305176	-0.0183105
-0.0549316	-0.0183105
-0.00518799	-0.0183105
0.209961	-0.017395
0.329285	-0.015564
0.33905	-0.0137329
0.209351	-0.012207
-0.0488281	-0.0115967
-0.252686	-0.0106812
-0.375061	-0.00976563
-0.435791	-0.0088501
-0.419922	-0.00854492
-0.336914	-0.00946045
-0.170593	-0.010376
0.0445557	-0.0109863
0.223694	-0.0119019
0.324707	-0.0128174
0.372314	-0.0134277
0.39978	-0.0137329
0.375671	-0.0137329
0.27771	-0.0131226
0.116577	-0.012207
-0.0588989	-0.0115967
-0.198364	-0.0119019
-0.292664	-0.0125122
-0.339661	-0.012207
-0.332642	-0.0109863
-0.269775	-0.00946045
-0.166931	-0.00823975
-0.0405884	-0.00762939
0.0726318	-0.00701904
0.153809	-0.00640869
0.203247	-0.00579834
0.228882	-0.00518799
0.218201	-0.00457764
0.157166	-0.00457764
0.0692749	-0.00518799
-0.0213623	-0.00610352
-0.0915527	-0.00671387
-0.124207	-0.00671387
-0.128174	-0.00701904
-0.112915	-0.00732422
-0.0878906	-0.00701904
-0.0454712	-0.00671387
0.00244141	-0.00610352
0.0314331	-0.00579834
0.0473022	-0.00579834
0.0634766	-0.00610352
0.0772095	-0.00610352
0.067749	-0.00610352
0.0344849	-0.00549316
-0.00610352	-0.00518799
-0.0357056	-0.00518799
-0.0537109	-0.00518799
-0.0579834	-0.00427246
-0.0488281	-0.00305176
-0.0408936	-0.00213623
-0.0195313	-0.00152588
0.0198364	-0.00152588
0.0393677	-0.00183105
0.0344849	-0.00274658
0.017395	-0.00366211
-0.012207	-0.00366211
-0.0238037	-0.00427246
-0.0186157	-0.00549316
-0.0262451	-0.00671387
-0.0323486	-0.00732422
-0.0134277	-0.00701904
0.0131226	-0.00701904
0.0363159	-0.00701904
0.0439453	-0.00732422
0.0360107	-0.00762939
0.0247192	-0.00823975
0.0204468	-0.00915527
0.0210571	-0.0106812
0.020752	-0.0125122
0.0106812	-0.0140381
-0.00976563	-0.0143433
-0.0222778	-0.0137329
-0.0158691	-0.0134277
-0.0128174	-0.0131226
-0.0164795	-0.0125122
-0.00762939	-0.0112915
0.00549316	-0.00915527
0.0152588	-0.00732422
0.0131226	-0.00549316
0.00244141	-0.00457764
-0.00976563	-0.00518799
-0.0164795	-0.00640869
-0.00854492	-0.00793457
0.00488281	-0.00915527
0.00213623	-0.00976563
-0.0177002	-0.00915527
-0.0338745	-0.00823975
-0.0308228	-0.00762939
-0.0305176	-0.00671387
-0.0357056	-0.00549316
-0.0198364	-0.00457764
0.0128174	-0.00305176
0.0338745	-0.00183105
0.0390625	-0.000915527
0.0427246	-0.000610352
0.0357056	-0.000915527
0.0250244	-0.00213623
0.0149536	-0.00396729
0.00244141	-0.00518799
-0.00518799	-0.00640869
-0.0137329	-0.00732422
-0.0146484	-0.00793457
-0.00244141	-0.00823975
0	-0.00854492
-0.0112915	-0.00915527
-0.0280762	-0.00946045
-0.0360107	-0.0088501
-0.0204468	-0.00762939
-0.012207	-0.00579834
-0.012207	-0.00335693
0.00305176	-0.000915527
0.0143433	0.000610352
0.0213623	0.000915527
0.0238037	0.0012207
0.0128174	0.00183105
-0.00579834	0.00183105
-0.0106812	0.000915527
-0.00732422	-0.00152588
-0.00305176	-0.00488281
0.000915527	-0.00762939
0.00518799	-0.0088501
0.0149536	-0.00854492
0.0213623	-0.00762939
0.0180054	-0.00640869
0.0125122	-0.00518799
0.0115967	-0.00335693
0.0158691	-0.00213623
0.0158691	-0.000915527
-0.00152588	-0.000610352
-0.0250244	-0.000305176
-0.0350952	-0.000305176
-0.0302124	-0.00152588
-0.0198364	-0.00335693
-0.0222778	-0.00518799
-0.0271606	-0.00640869
-0.0137329	-0.00640869
0.0106812	-0.00488281
0.0357056	-0.00274658
0.0515747	-0.000610352
0.0415039	0.000915527
0.0296021	0.00213623
0.0146484	0.00335693
-0.00457764	0.00427246
-0.0238037	0.00427246
-0.0390625	0.00396729
-0.0469971	0.00396729
-0.0527954	0.00366211
-0.0454712	0.00305176
-0.0119019	0.00183105
0.0180054	0.000915527
0.0308228	0.000610352
0.0454712	0.0012207
0.0488281	0.00183105
0.0320435	0.00183105
-0.000305176	0.00152588
-0.0180054	0.000915527
-0.0286865	0.000915527
-0.0274658	0.00183105
-0.0238037	0.00305176
-0.0241089	0.00488281
-0.010376	0.00671387
0.0128174	0.00946045
0.0320435	0.0137329
0.0323486	0.0186157
0.0244141	0.0234985
0.0115967	0.0280762
-0.00244141	0.0323486
-0.00732422	0.0363159
-0.017395	0.0384521
-0.027771	0.0405884
-0.0350952	0.0427246
-0.0241089	0.0445557
-0.0012207	0.0457764
0.017395	0.0479126
0.0305176	0.0506592
0.0305176	0.0531006
0.0201416	0.055542
0.0195313	0.057373
0.00946045	0.0585938
-0.012207	0.0592041
-0.0271606	0.0588989
-0.0283813	0.0570679
-0.0213623	0.0534058
-0.0164795	0.0479126
-0.0183105	0.0408936
-0.00946045	0.0326538
0.00579834	0.0241089
0.0137329	0.0161743
0.020752	0.00946045
0.0238037	0.00335693
0.0253296	-0.00183105
0.0241089	-0.00640869
0.0195313	-0.0100708
0.00915527	-0.0128174
-0.00335693	-0.0149536
-0.0204468	-0.017395
-0.017395	-0.0192261
-0.0198364	-0.0204468
-0.0219727	-0.0216675
-0.017395	-0.0234985
-0.00610352	-0.0259399
0.000305176	-0.0286865
0.00335693	-0.0308228
-0.00335693	-0.0320435
-0.00305176	-0.0320435
-0.00488281	-0.0314331
-0.0012207	-0.0302124
0.0119019	-0.0296021
0.012207	-0.0286865
-0.000305176	-0.0268555
0.00976563	-0.0244141
0.0241089	-0.022583
0.0244141	-0.0210571
0.0262451	-0.0195313
0.00976563	-0.0186157
-0.0149536	-0.0177002
-0.027771	-0.0177002
-0.0305176	-0.0180054
-0.0369263	-0.0183105
-0.0262451	-0.017395
-0.00823975	-0.0149536
0.00701904	-0.0106812
0.015564	-0.00488281
0.0140381	0.00152588
-0.00335693	0.0088501
-0.0143433	0.0189209
-0.0192261	0.0314331
-0.015564	0.0466919
-0.0115967	0.0634766
-0.00549316	0.0805664
-0.0125122	0.0979614
0.00976563	0.116882
0.0418091	0.13855
0.0344849	0.161438
0.0262451	0.184631
0.0305176	0.207214
0.03479	0.227661
0.039978	0.243225
0.045166	0.25177
0.0250244	0.251465
-0.00854492	0.239868
-0.0375366	0.216064
-0.0314331	0.180359
-0.0393677	0.134583
-0.0344849	0.0814819
0.0268555	0.0250244
-0.0186157	-0.0314331
-0.291748	-0.0842285
-0.260925	-0.1297
0.0152588	-0.164795
0.13916	-0.187073
0.133667	-0.196228
0.109863	-0.192871
0.0219727	-0.179749
-0.0457764	-0.160522
-0.00244141	-0.138855
0.0823975	-0.117798
0.149231	-0.0982666
0.181885	-0.0808716
0.153503	-0.0665283
0.12146	-0.0561523
0.101624	-0.0497437
0.0415039	-0.0460815
-0.0772095	-0.0448608
-0.21637	-0.0439453
-0.310974	-0.0424194
-0.3479	-0.0396729
-0.35614	-0.0366211
-0.313721	-0.0332642
-0.0842285	-0.0299072
0.017395	-0.0265503
-0.00457764	-0.0234985
0.384827	-0.0216675
0.576477	-0.0198364
0.438232	-0.0186157
0.346069	-0.0186157
0.209351	-0.0192261
0.0167847	-0.0198364
-0.153198	-0.0201416
-0.313416	-0.0201416
-0.415955	-0.0201416
-0.422363	-0.0201416
-0.351563	-0.0204468
-0.212402	-0.0204468
-0.0280762	-0.0204468
0.150452	-0.0201416
0.308533	-0.0189209
0.453491	-0.0167847
0.25116	-0.0146484
0.0460815	-0.0131226
0.184937	-0.0119019
0.137939	-0.0100708
-0.0283813	-0.00762939
-0.0704956	-0.00457764
-0.187378	-0.00183105
-0.26886	-0.000305176
-0.175476	0.000305176
-0.133667	0
-0.108948	-0.000610352
-0.045166	-0.000915527
-0.00366211	-0.00152588
0.0317383	-0.00274658
0.072937	-0.00366211
0.105286	-0.00427246
0.116577	-0.00427246
0.105591	-0.00396729
0.0839233	-0.00335693
0.0576782	-0.00274658
0.0192261	-0.00183105
-0.0210571	-0.000915527
-0.0631714	0.000305176
-0.0457764	0.00183105
-0.0100708	0.00335693
-0.00152588	0.00518799
-0.00488281	0.00701904
-0.017395	0.00946045
-0.0515747	0.0112915
-0.0723267	0.0119019
-0.0643921	0.0119019
-0.0335693	0.0115967
0.00244141	0.0112915
0.0405884	0.0100708
0.067749	0.00823975
0.0735474	0.00701904
0.0424194	0.00640869
0.0186157	0.00701904
0.00518799	0.00793457
0.000915527	0.0088501
-0.00488281	0.010376
-0.0137329	0.0131226
-0.0234985	0.0161743
-0.0204468	0.0183105
-0.0219727	0.0198364
-0.0292969	0.0210571
-0.039978	0.0216675
-0.0317383	0.0219727
0.00488281	0.0222778
0.0317383	0.0234985
0.045166	0.0244141
0.0390625	0.0241089
0.0115967	0.0241089
-0.0259399	0.0250244
-0.0393677	0.0268555
-0.0256348	0.0280762
-0.00427246	0.0274658
0.00915527	0.0253296
0.0256348	0.022583
0.0396729	0.020752
0.0299072	0.0201416
0.00335693	0.0195313
-0.0170898	0.0198364
-0.020752	0.0204468
-0.0158691	0.0216675
-0.00823975	0.0241089
-0.00457764	0.0271606
0.00152588	0.0305176
0.0125122	0.03479
0.020752	0.0390625
0.0146484	0.0418091
-0.00396729	0.043335
-0.0198364	0.0436401
-0.020752	0.043335
-0.0134277	0.0421143
-0.00976563	0.0405884
-0.00793457	0.0390625
-0.00732422	0.0378418
0.00946045	0.0366211
0.027771	0.0350952
0.0305176	0.0344849
0.0195313	0.0344849
0.012207	0.03479
0.00396729	0.0338745
0.00183105	0.0320435
-0.00671387	0.0308228
-0.0161743	0.0292969
-0.0112915	0.0274658
-0.00244141	0.0247192
-0.00274658	0.020752
-0.0128174	0.0161743
-0.0372314	0.0119019
-0.0512695	0.00823975
-0.0411987	0.00549316
-0.010376	0.00335693
0.0170898	0.00152588
0.0317383	0.000305176
0.0436401	-0.0012207
0.0552368	-0.00274658
0.0521851	-0.00427246
0.03479	-0.00579834
-0.00579834	-0.00701904
-0.0415039	-0.00915527
-0.0512695	-0.0119019
-0.0469971	-0.0143433
-0.0442505	-0.0161743
-0.0427246	-0.0183105
-0.0344849	-0.020752
-0.00976563	-0.022583
0.0167847	-0.0234985
0.0350952	-0.0238037
0.0485229	-0.0234985
0.0564575	-0.0228882
0.0598145	-0.0222778
0.0598145	-0.0216675
0.0473022	-0.020752
0.0244141	-0.020752
-0.00396729	-0.0213623
-0.027771	-0.0222778
-0.0424194	-0.0222778
-0.0552368	-0.0216675
-0.0650024	-0.020752
-0.0643921	-0.0210571
-0.0494385	-0.0213623
-0.0296021	-0.0210571
-0.0161743	-0.0198364
-0.00854492	-0.0180054
-0.0106812	-0.0158691
-0.0189209	-0.0140381
-0.0134277	-0.012207
-0.0112915	-0.0109863
-0.00671387	-0.0100708
0.195313	-0.00976563
0.352478	-0.00946045
0.358582	-0.00946045
0.256958	-0.0100708
-0.00579834	-0.0106812
-0.243225	-0.0112915
-0.371094	-0.0119019
-0.454712	-0.012207
-0.461121	-0.0128174
-0.363159	-0.0128174
-0.183411	-0.0125122
0.0436401	-0.012207
0.237732	-0.0119019
0.351257	-0.0119019
0.386963	-0.012207
0.366821	-0.012207
0.310669	-0.0119019
0.222473	-0.0112915
0.0909424	-0.010376
-0.0521851	-0.00946045
-0.157471	-0.0088501
-0.222168	-0.00823975
-0.254822	-0.00732422
-0.249329	-0.00610352
-0.205688	-0.00457764
-0.131836	-0.00305176
-0.0482178	-0.00213623
0.032959	-0.0012207
0.0924683	-0.000305176
0.120544	0
0.123596	0
0.108948	-0.0012207
0.078125	-0.00244141
0.0292969	-0.00396729
-0.0274658	-0.00549316
-0.0622559	-0.00732422
-0.0668335	-0.00915527
-0.0518799	-0.0106812
-0.0244141	-0.0119019
-0.00518799	-0.0119019
0.0125122	-0.0112915
0.0369263	-0.0100708
0.0521851	-0.00823975
0.0488281	-0.00579834
0.027771	-0.00305176
0.0088501	0
-0.00366211	0.00244141
-0.0149536	0.00335693
-0.0216675	0.00335693
-0.0286865	0.00183105
-0.0320435	0
-0.0244141	-0.00152588
-0.0131226	-0.00335693
0.00427246	-0.00671387
0.0192261	-0.00915527
0.017395	-0.0106812
0.0146484	-0.0106812
0.015564	-0.0106812
0.0088501	-0.010376
-0.00518799	-0.00946045
-0.0131226	-0.00793457
-0.00671387	-0.00579834
0.000305176	-0.00305176
-0.000915527	-0.0012207
-0.00915527	-0.000305176
-0.0189209	0
-0.0134277	-0.000305176
-0.00579834	0
-0.00335693	-0.000610352
-0.00152588	-0.00213623
-0.00427246	-0.00366211
0.00152588	-0.00549316
0.00732422	-0.00732422
0.00610352	-0.00854492
0.00518799	-0.00915527
0.00396729	-0.00976563
0.0112915	-0.00976563
0.0161743	-0.00915527
0.00396729	-0.00854492
-0.0125122	-0.00793457
-0.0253296	-0.00762939
-0.0262451	-0.00762939
-0.0128174	-0.00732422
0.00396729	-0.00640869
0.0180054	-0.00579834
0.0247192	-0.00579834
0.0265503	-0.00640869
0.0283813	-0.00732422
0.0231934	-0.00823975
0.0140381	-0.00854492
0.00335693	-0.0088501
-0.0088501	-0.0088501
-0.0146484	-0.0088501
-0.0271606	-0.0088501
-0.0402832	-0.00854492
-0.0341797	-0.0088501
-0.0198364	-0.00854492
-0.00549316	-0.00762939
0.00732422	-0.00671387
0.012207	-0.00579834
0.0164795	-0.00549316
0.0146484	-0.00518799
0.0119019	-0.00518799
0.0100708	-0.00579834
0.00213623	-0.00640869
-0.00946045	-0.00732422
-0.0192261	-0.0088501
-0.0250244	-0.0100708
-0.0231934	-0.0106812
-0.0183105	-0.0100708
-0.00701904	-0.00946045
0.0115967	-0.00854492
0.0280762	-0.00762939
0.0308228	-0.00579834
0.0189209	-0.00335693
0.0125122	-0.000305176
0.0137329	0.00274658
0.00946045	0.00610352
0	0.00946045
-0.00488281	0.0128174
-0.010376	0.0161743
-0.0128174	0.0192261
-0.00976563	0.0222778
-0.0164795	0.0250244
-0.0259399	0.0274658
-0.0244141	0.0299072
-0.00762939	0.0317383
0.0192261	0.0332642
0.0396729	0.0344849
0.0421143	0.0363159
0.0415039	0.0393677
0.0308228	0.0427246
0.00396729	0.0460815
-0.0366211	0.0491333
-0.0701904	0.0512695
-0.0836182	0.0518799
-0.0723267	0.050354
-0.0396729	0.0476074
0.000915527	0.043335
0.0241089	0.0369263
0.0415039	0.0283813
0.06073	0.0189209
0.067749	0.00946045
0.0592041	0.0012207
0.0436401	-0.00579834
0.0250244	-0.0109863
0.00671387	-0.0146484
-0.00640869	-0.0161743
-0.0192261	-0.0161743
-0.0314331	-0.015564
-0.0369263	-0.0149536
-0.0415039	-0.0146484
-0.0445557	-0.0149536
-0.0418091	-0.0170898
-0.0332642	-0.0204468
-0.0128174	-0.0250244
0.0253296	-0.0280762
0.0656128	-0.0302124
0.0802612	-0.0320435
0.055542	-0.0338745
0.00671387	-0.0350952
-0.0308228	-0.0360107
-0.0448608	-0.0357056
-0.0531006	-0.0341797
-0.0543213	-0.0326538
-0.0366211	-0.0314331
-0.00793457	-0.0308228
0.0195313	-0.0308228
0.0320435	-0.0314331
0.0317383	-0.0320435
0.0271606	-0.0323486
0.0216675	-0.0320435
0.012207	-0.0314331
-0.00823975	-0.0305176
-0.0311279	-0.0292969
-0.0402832	-0.027771
-0.03479	-0.0259399
-0.0140381	-0.0241089
-0.0012207	-0.022583
0.00579834	-0.0204468
0.0210571	-0.017395
0.0292969	-0.0131226
0.0372314	-0.00732422
0.0405884	-0.000305176
0.0323486	0.00854492
0.0164795	0.020752
0.000915527	0.03479
-0.00488281	0.0506592
-0.0158691	0.0680542
-0.0357056	0.0878906
-0.0476074	0.110168
-0.0372314	0.133972
-0.0119019	0.157776
0.00640869	0.180664
0.0119019	0.202637
0.0177002	0.221863
0.0265503	0.237122
0.0292969	0.245972
0.0259399	0.246277
0.0231934	0.235596
0.0265503	0.213013
0.0222778	0.178528
0.010376	0.133972
-0.0131226	0.0820923
-0.0482178	0.0268555
-0.0769043	-0.0292969
-0.0866699	-0.0836182
-0.0744629	-0.131226
-0.0494385	-0.168152
-0.0283813	-0.192871
-0.00671387	-0.204468
0.00183105	-0.204163
-0.0561523	-0.193176
-0.11261	-0.174561
-0.057373	-0.151672
0.0610352	-0.127258
0.190125	-0.103149
0.305481	-0.0820923
0.353394	-0.0656128
0.324097	-0.0534058
0.255127	-0.0445557
0.136108	-0.0384521
-0.0592041	-0.0344849
-0.278625	-0.0320435
-0.463867	-0.0308228
-0.560303	-0.0302124
-0.542297	-0.0299072
-0.435486	-0.0296021
-0.242615	-0.0292969
0.017395	-0.0286865
0.272827	-0.0280762
0.464172	-0.0271606
0.557251	-0.0262451
0.531921	-0.0253296
0.397339	-0.0244141
0.206604	-0.0238037
0.0134277	-0.0228882
-0.168152	-0.0219727
-0.322571	-0.0219727
-0.418701	-0.0216675
-0.440979	-0.0210571
-0.384827	-0.0204468
-0.258179	-0.0201416
-0.0860596	-0.0201416
0.09552	-0.0201416
0.257568	-0.0198364
0.361938	-0.0186157
0.390015	-0.0161743
0.348206	-0.0134277
0.250854	-0.0109863
0.12207	-0.0100708
-0.00366211	-0.0100708
-0.113525	-0.010376
-0.194092	-0.00976563
-0.240479	-0.00854492
-0.244751	-0.00732422
-0.206604	-0.00640869
-0.130005	-0.00579834
-0.0524902	-0.00488281
-0.00427246	-0.00396729
0.0448608	-0.00274658
0.0912476	-0.0012207
0.116272	0.000610352
0.113831	0.00183105
0.0875854	0.00183105
0.0494385	0.0012207
0.0119019	0.000305176
-0.020752	0.000305176
-0.045166	0.0012207
-0.06073	0.00244141
-0.0582886	0.00335693
-0.0332642	0.00396729
-0.00793457	0.00488281
0.00854492	0.00610352
0.0161743	0.00732422
0.015564	0.00854492
0.00518799	0.00976563
-0.00183105	0.0112915
-0.00335693	0.0128174
-0.00732422	0.0131226
-0.00488281	0.0131226
0.0143433	0.0131226
0.0354004	0.0134277
0.0418091	0.0134277
0.032959	0.0137329
0.0234985	0.0134277
0.0158691	0.0134277
0.0112915	0.0134277
0.0149536	0.0134277
0.0128174	0.0134277
-0.00579834	0.0140381
-0.0350952	0.0152588
-0.0784302	0.0158691
-0.120544	0.0161743
-0.131836	0.0161743
-0.098877	0.0164795
-0.0302124	0.017395
0.0436401	0.0186157
0.0930786	0.0192261
0.114441	0.0186157
0.115967	0.0183105
0.101013	0.0192261
0.0741577	0.0213623
0.0427246	0.0228882
0.00396729	0.0241089
-0.0198364	0.0247192
-0.0582886	0.0256348
-0.0897217	0.0265503
-0.0976563	0.027771
-0.0866699	0.0289917
-0.06073	0.0302124
-0.0271606	0.0317383
0.0100708	0.0326538
0.0405884	0.0335693
0.0506592	0.03479
0.0457764	0.0357056
0.0430298	0.0363159
0.0372314	0.0366211
0.0201416	0.0369263
0.00305176	0.0369263
0.00366211	0.0366211
0.0112915	0.0363159
0.0112915	0.0354004
0.00854492	0.03479
0.00762939	0.0344849
0.00549316	0.0341797
0.000610352	0.0341797
-0.0119019	0.0350952
-0.0350952	0.0360107
-0.0537109	0.0350952
-0.0634766	0.0332642
-0.0582886	0.0311279
-0.0363159	0.0292969
-0.00549316	0.0271606
0.0177002	0.0247192
0.0299072	0.0213623
0.0308228	0.0177002
0.0231934	0.0140381
0.0115967	0.0106812
-0.00518799	0.00762939
-0.015564	0.00518799
-0.00732422	0.00213623
0.00701904	-0.000610352
0.0143433	-0.00213623
0.0128174	-0.00366211
0.015564	-0.00518799
0.0274658	-0.00701904
0.0323486	-0.0088501
0.0256348	-0.0109863
0.0158691	-0.0128174
0.00823975	-0.0158691
0.0189209	-0.0189209
0.0427246	-0.0210571
0.0375366	-0.0219727
-0.000915527	-0.0228882
-0.057373	-0.0234985
-0.110168	-0.0244141
-0.126038	-0.0247192
-0.111084	-0.0244141
-0.0793457	-0.0231934
-0.0320435	-0.0219727
0.0195313	-0.020752
0.0619507	-0.0201416
0.0921631	-0.0201416
0.0991821	-0.0210571
0.0842285	-0.0216675
0.0708008	-0.0222778
0.0543213	-0.0222778
0.0210571	-0.0222778
-0.0158691	-0.0222778
-0.0460815	-0.0219727
-0.0689697	-0.0210571
-0.0726318	-0.0198364
-0.0714111	-0.0183105
-0.0701904	-0.0170898
-0.0543213	-0.015564
-0.0378418	-0.0137329
-0.0201416	-0.0125122
-0.00305176	-0.0119019
-0.00549316	-0.0112915
0.0460815	-0.0112915
0.271606	-0.0112915
0.399475	-0.0125122
0.409546	-0.0140381
0.255432	-0.0158691
-0.0326538	-0.0161743
-0.255127	-0.0161743
-0.403442	-0.0158691
-0.507202	-0.015564
-0.523987	-0.0152588
-0.435486	-0.0140381
-0.238342	-0.012207
0.0170898	-0.010376
0.216675	-0.00854492
0.340271	-0.00640869
0.414734	-0.00427246
0.440369	-0.00305176
0.40863	-0.00305176
0.306091	-0.00305176
0.148926	-0.00305176
-0.00976563	-0.00335693
-0.148315	-0.00396729
-0.269165	-0.00427246
-0.345459	-0.00396729
-0.358887	-0.00396729
-0.312195	-0.00488281
-0.213623	-0.00549316
-0.0860596	-0.00518799
0.038147	-0.00366211
0.135498	-0.00274658
0.196228	-0.00244141
0.221558	-0.00244141
0.214844	-0.00274658
0.17395	-0.00305176
0.102234	-0.00396729
0.0274658	-0.00457764
-0.0231934	-0.00488281
-0.0732422	-0.00457764
-0.115356	-0.00488281
-0.133667	-0.00457764
-0.126953	-0.00366211
-0.0979614	-0.00305176
-0.057373	-0.00274658
-0.0234985	-0.00274658
0.010376	-0.00244141
0.0463867	-0.00274658
0.0717163	-0.00396729
0.0830078	-0.00549316
0.0775146	-0.00701904
0.0579834	-0.00793457
0.0396729	-0.00854492
0.0186157	-0.0088501
-0.00366211	-0.00854492
-0.0222778	-0.00732422
-0.0424194	-0.00579834
-0.0549316	-0.00427246
-0.0546265	-0.00366211
-0.0460815	-0.00366211
-0.032959	-0.00396729
-0.0152588	-0.00488281
0.0143433	-0.00610352
0.0466919	-0.00732422
0.0628662	-0.00793457
0.0521851	-0.00854492
0.0335693	-0.00915527
0.0213623	-0.0100708
0.00762939	-0.0109863
-0.0115967	-0.0119019
-0.0244141	-0.012207
-0.0396729	-0.0119019
-0.0430298	-0.0115967
-0.0241089	-0.0112915
-0.0140381	-0.0109863
-0.0115967	-0.0109863
-0.0228882	-0.0109863
-0.0305176	-0.0106812
-0.0222778	-0.00946045
-0.0140381	-0.00793457
0.0115967	-0.00701904
0.032959	-0.00701904
0.0457764	-0.00701904
0.0570679	-0.00640869
0.0534058	-0.00640869
0.03479	-0.00701904
-0.00213623	-0.00823975
-0.0253296	-0.00915527
-0.0341797	-0.00946045
-0.0421143	-0.00976563
-0.0299072	-0.00976563
-0.0253296	-0.0100708
-0.0137329	-0.0100708
0.00762939	-0.00976563
0.0180054	-0.0088501
0.0259399	-0.00793457
0.0177002	-0.00640869
0.0106812	-0.00457764
0.00701904	-0.00335693
0	-0.00244141
0.00549316	-0.00305176
-0.0012207	-0.00335693
-0.00579834	-0.00335693
-0.00640869	-0.00366211
-0.015564	-0.00396729
-0.00915527	-0.00457764
-0.0112915	-0.00610352
-0.00946045	-0.00823975
0.00823975	-0.00915527
0.0106812	-0.0088501
0.0137329	-0.00793457
0.00335693	-0.00671387
-0.0106812	-0.00518799
0.00305176	-0.00305176
0.0164795	-0.000305176
0.0244141	0.00274658
0.015564	0.00549316
-0.00335693	0.00732422
-0.0152588	0.0100708
-0.0292969	0.0137329
-0.0344849	0.0170898
-0.0390625	0.0201416
-0.0378418	0.0228882
-0.0198364	0.0256348
-0.00671387	0.0286865
0.0100708	0.0314331
0.0231934	0.0344849
0.0234985	0.0369263
0.03479	0.0390625
0.0473022	0.0418091
0.038147	0.045166
0.0195313	0.0488281
0.00518799	0.0521851
-0.00244141	0.0543213
-0.00274658	0.0552368
-0.00976563	0.0552368
-0.022583	0.0546265
-0.0292969	0.0543213
-0.0186157	0.0527954
-0.00305176	0.0488281
-0.00610352	0.0430298
-0.0216675	0.0357056
-0.0271606	0.0271606
-0.0210571	0.0186157
-0.0131226	0.0106812
-0.0088501	0.00366211
-0.00152588	-0.00213623
0.0106812	-0.00671387
0.020752	-0.010376
0.0292969	-0.0128174
0.0308228	-0.0146484
0.0253296	-0.0161743
0.0265503	-0.017395
0.0305176	-0.0183105
0.0280762	-0.0195313
0.0146484	-0.0210571
-0.0100708	-0.0234985
-0.0335693	-0.0259399
-0.0442505	-0.0292969
-0.039978	-0.032959
-0.0332642	-0.0357056
-0.0274658	-0.0366211
-0.0109863	-0.0372314
0.0115967	-0.038147
0.0314331	-0.0390625
0.039978	-0.0390625
0.0241089	-0.0384521
0.0137329	-0.038147
0.0131226	-0.038147
0.00305176	-0.038147
-0.00610352	-0.0375366
-0.0131226	-0.0372314
-0.0268555	-0.0366211
-0.0323486	-0.0354004
-0.0274658	-0.0335693
-0.0201416	-0.0317383
-0.0100708	-0.0299072
0.00213623	-0.0283813
0.017395	-0.0268555
0.0323486	-0.0250244
0.0271606	-0.022583
0.0177002	-0.0186157
0.00213623	-0.0134277
-0.00335693	-0.00701904
0.00701904	0.000610352
-0.00427246	0.00946045
-0.0146484	0.0210571
-0.0198364	0.0357056
-0.022583	0.0527954
-0.0143433	0.071106
-0.0158691	0.0900269
-0.0161743	0.110779
-0.00915527	0.133057
-0.000610352	0.15625
0.00823975	0.179138
0.00640869	0.2005
0.0219727	0.219727
0.0430298	0.235901
0.0531006	0.245361
0.0646973	0.244446
0.0454712	0.231628
0.020752	0.208435
-0.0012207	0.174866
-0.0335693	0.130615
-0.0531006	0.078125
-0.0708008	0.0210571
-0.0857544	-0.0357056
-0.0778198	-0.088501
-0.0585938	-0.133972
-0.0231934	-0.168762
0.00274658	-0.191345
0.000915527	-0.201721
-0.0689697	-0.199585
-0.144043	-0.187988
-0.0854492	-0.169373
0.0335693	-0.147705
0.151978	-0.125427
0.295105	-0.104675
0.386047	-0.0860596
0.392761	-0.0704956
0.330505	-0.0585938
0.183105	-0.0506592
-0.0253296	-0.0457764
-0.256042	-0.0427246
-0.455627	-0.0402832
-0.583191	-0.038147
-0.608215	-0.0360107
-0.526123	-0.0335693
-0.33905	-0.0314331
-0.0619507	-0.0305176
0.231934	-0.0305176
0.467224	-0.0308228
0.61676	-0.0302124
0.648193	-0.0292969
0.531921	-0.0283813
0.318909	-0.0274658
0.0643921	-0.0265503
-0.185852	-0.0262451
-0.360107	-0.0259399
-0.446167	-0.0253296
-0.46051	-0.0241089
-0.395203	-0.0234985
-0.271606	-0.0231934
-0.119019	-0.0234985
0.039978	-0.0234985
0.177612	-0.022583
0.281982	-0.0213623
0.333862	-0.0201416
0.323486	-0.0189209
0.261536	-0.0177002
0.1474	-0.0158691
0.0161743	-0.0143433
-0.090332	-0.0134277
-0.171509	-0.0131226
-0.20813	-0.0134277
-0.202942	-0.0137329
-0.179443	-0.0140381
-0.122375	-0.0140381
-0.0427246	-0.0140381
0.0299072	-0.0143433
0.083313	-0.0146484
0.102844	-0.0137329
0.105591	-0.0119019
0.106812	-0.00946045
0.0891113	-0.00671387
0.0546265	-0.00518799
0.0131226	-0.00457764
-0.0247192	-0.00396729
-0.0476074	-0.00335693
-0.0616455	-0.00244141
-0.0708008	-0.00213623
-0.0704956	-0.00213623
-0.0595093	-0.00213623
-0.0326538	-0.00274658
-0.00549316	-0.00274658
0.0152588	-0.00244141
0.0354004	-0.00183105
0.0473022	-0.000915527
0.0531006	-0.000305176
0.0546265	0.000305176
0.0378418	0.00152588
0.0109863	0.00274658
-0.015564	0.00457764
-0.0338745	0.00640869
-0.0280762	0.00701904
-0.0238037	0.00823975
-0.0189209	0.00976563
-0.00976563	0.0106812
-0.0125122	0.0109863
-0.00183105	0.0106812
0.00854492	0.0106812
0.0012207	0.0106812
0.00335693	0.0106812
-0.000915527	0.010376
-0.00579834	0.00976563
-0.00488281	0.00946045
-0.00610352	0.00946045
-0.00946045	0.010376
-0.0125122	0.0115967
0.00915527	0.0131226
0.0274658	0.0146484
0.0210571	0.0164795
0.0164795	0.0177002
0.0088501	0.0192261
-0.000610352	0.020752
-0.00854492	0.0222778
-0.0360107	0.0234985
-0.0445557	0.0244141
-0.0231934	0.0247192
-0.0012207	0.0250244
0.0115967	0.0253296
0.0146484	0.0250244
0.0250244	0.0241089
0.032959	0.0234985
0.0396729	0.0234985
0.03479	0.0238037
0.0112915	0.0241089
0.0088501	0.0253296
0.00366211	0.0274658
-0.0140381	0.0299072
-0.0192261	0.0323486
-0.0253296	0.0341797
-0.0280762	0.0354004
-0.0231934	0.0360107
-0.0241089	0.0357056
-0.0222778	0.0344849
-0.0161743	0.0320435
-0.00213623	0.0292969
0.017395	0.0265503
0.0320435	0.0253296
0.0344849	0.0241089
0.0201416	0.0222778
0.00518799	0.020752
0.0012207	0.0198364
0.000305176	0.0189209
-0.00244141	0.0180054
-0.0180054	0.0167847
-0.0323486	0.0149536
-0.0296021	0.012207
-0.0183105	0.00915527
-0.00976563	0.00549316
-0.00549316	0.00152588
0.00213623	-0.00274658
0.0177002	-0.00640869
0.0231934	-0.00915527
0.0183105	-0.0115967
0.00946045	-0.0140381
0.0012207	-0.0164795
-0.00305176	-0.0192261
0.000915527	-0.0213623
0.00762939	-0.022583
0.00762939	-0.0238037
0.00518799	-0.0253296
0.00854492	-0.0265503
-0.00183105	-0.0271606
-0.0149536	-0.0274658
-0.017395	-0.027771
-0.0161743	-0.0280762
-0.00335693	-0.0286865
0.0115967	-0.0286865
0.0152588	-0.0283813
0.0088501	-0.0280762
0.0125122	-0.0271606
0.0186157	-0.0265503
0.00823975	-0.0265503
-0.00732422	-0.0265503
-0.0216675	-0.0262451
-0.0259399	-0.0268555
-0.0183105	-0.027771
-0.0177002	-0.0283813
-0.0238037	-0.0280762
-0.0262451	-0.0271606
-0.0234985	-0.0256348
-0.0140381	-0.0247192
-0.0088501	-0.0244141
-0.00640869	-0.0234985
-0.00457764	-0.0219727
-0.0119019	-0.0195313
-0.0192261	-0.0170898
-0.0320435	-0.0152588
-0.039978	-0.0140381
0.00244141	-0.0137329
0.186768	-0.0146484
0.33905	-0.0158691
0.379028	-0.0164795
0.273743	-0.0170898
0.0250244	-0.0177002
-0.19928	-0.0180054
-0.355225	-0.0183105
-0.44281	-0.0183105
-0.445862	-0.0164795
-0.390625	-0.0146484
-0.257263	-0.0131226
-0.0564575	-0.012207
0.151978	-0.0115967
0.303345	-0.0115967
0.391235	-0.0119019
0.433044	-0.012207
0.415344	-0.0131226
0.331421	-0.0146484
0.186768	-0.0158691
0.00640869	-0.0158691
-0.159302	-0.0149536
-0.280457	-0.0137329
-0.346985	-0.0125122
-0.358582	-0.0112915
-0.316772	-0.00915527
-0.226135	-0.00762939
-0.102539	-0.00732422
0.0268555	-0.00793457
0.130615	-0.00915527
0.195007	-0.0106812
0.218506	-0.0115967
0.208435	-0.012207
0.175476	-0.0125122
0.117493	-0.0119019
0.0448608	-0.0115967
-0.0128174	-0.0115967
-0.0628662	-0.0125122
-0.0909424	-0.0131226
-0.111694	-0.0131226
-0.1297	-0.0134277
-0.11322	-0.0137329
-0.072937	-0.0146484
-0.0344849	-0.0158691
0.00579834	-0.0167847
0.0421143	-0.0167847
0.0671387	-0.0158691
0.0756836	-0.0149536
0.078125	-0.0143433
0.0762939	-0.0146484
0.0628662	-0.0149536
0.0521851	-0.015564
0.0390625	-0.0161743
0.00488281	-0.0170898
-0.0460815	-0.0177002
-0.0979614	-0.0177002
-0.131836	-0.017395
-0.131531	-0.017395
-0.101318	-0.017395
-0.0567627	-0.0170898
-0.00579834	-0.0167847
0.0476074	-0.0167847
0.0845337	-0.0177002
0.100708	-0.0189209
0.101929	-0.020752
0.0845337	-0.0222778
0.0576782	-0.0231934
0.0228882	-0.0238037
-0.0186157	-0.0238037
-0.0576782	-0.0238037
-0.0872803	-0.0234985
-0.0973511	-0.0222778
-0.0811768	-0.020752
-0.0408936	-0.0192261
-0.00244141	-0.0189209
0.0238037	-0.0192261
0.0567627	-0.0192261
0.0836182	-0.0186157
0.0912476	-0.0180054
0.0811768	-0.0177002
0.0527954	-0.017395
0.0106812	-0.0170898
-0.0216675	-0.0161743
-0.0491333	-0.0152588
-0.0765991	-0.0146484
-0.0897217	-0.0143433
-0.0790405	-0.0152588
-0.0512695	-0.0167847
-0.0189209	-0.0186157
0.00732422	-0.0204468
0.0292969	-0.0219727
0.0476074	-0.0228882
0.0546265	-0.0234985
0.0454712	-0.0238037
0.0271606	-0.0238037
0.00976563	-0.0231934
-0.00366211	-0.0222778
-0.00488281	-0.0210571
-0.00366211	-0.0189209
-0.0119019	-0.0167847
-0.0259399	-0.015564
-0.0326538	-0.0146484
-0.0216675	-0.0146484
-0.00152588	-0.0149536
0.0280762	-0.0152588
0.0332642	-0.0152588
0.00488281	-0.0152588
-0.00274658	-0.015564
0.0170898	-0.0164795
0.0180054	-0.0170898
0.00244141	-0.017395
-0.00183105	-0.0167847
-0.00396729	-0.0164795
-0.015564	-0.0164795
-0.0384521	-0.0164795
-0.0582886	-0.0164795
-0.057373	-0.0164795
-0.0296021	-0.0158691
0.0112915	-0.015564
0.0457764	-0.0158691
0.0546265	-0.0167847
0.0457764	-0.0180054
0.03479	-0.0183105
0.00671387	-0.0177002
-0.0198364	-0.0167847
-0.0366211	-0.015564
-0.0390625	-0.0146484
-0.0195313	-0.0143433
0.0128174	-0.0137329
0.0378418	-0.0128174
0.0460815	-0.0112915
0.0393677	-0.00976563
0.0241089	-0.0088501
0.000305176	-0.0088501
-0.027771	-0.00976563
-0.0512695	-0.0109863
-0.057373	-0.012207
-0.0427246	-0.0131226
-0.0198364	-0.0140381
-0.00732422	-0.0146484
0.000915527	-0.0149536
0.0167847	-0.015564
0.0289917	-0.015564
0.0332642	-0.015564
0.0350952	-0.0164795
0.0317383	-0.0167847
0.0231934	-0.0161743
0.0192261	-0.0146484
0.0180054	-0.0134277
0.000305176	-0.0128174
-0.0238037	-0.0125122
-0.0396729	-0.012207
-0.0411987	-0.0106812
-0.0320435	-0.00915527
-0.0292969	-0.00793457
-0.0335693	-0.00701904
-0.0213623	-0.00518799
0.00518799	-0.00335693
0.0253296	-0.0012207
0.0332642	0.0012207
0.0305176	0.00396729
0.0259399	0.00732422
0.0247192	0.0112915
0.0177002	0.0158691
-0.000915527	0.020752
-0.0216675	0.0250244
-0.0308228	0.0286865
-0.0177002	0.0308228
-0.00457764	0.0323486
0.00183105	0.0332642
0.00640869	0.0338745
0.00946045	0.0354004
0.0134277	0.038147
0.0100708	0.0408936
-0.00213623	0.0427246
-0.017395	0.0436401
-0.0354004	0.043335
-0.0369263	0.0430298
-0.0250244	0.0427246
-0.0231934	0.0418091
-0.0244141	0.0387573
-0.00823975	0.0335693
0.0192261	0.0268555
0.039978	0.0198364
0.0488281	0.0128174
0.0473022	0.00610352
0.043335	0
0.0335693	-0.00488281
0.0164795	-0.0088501
-0.000915527	-0.0115967
-0.0170898	-0.0140381
-0.0296021	-0.015564
-0.0415039	-0.0167847
-0.0466919	-0.0180054
-0.0338745	-0.0198364
-0.0149536	-0.0222778
0.00427246	-0.0244141
0.0256348	-0.0262451
0.0411987	-0.0283813
0.0427246	-0.0308228
0.0317383	-0.0335693
0.00854492	-0.0357056
-0.00427246	-0.0375366
-0.0112915	-0.0390625
-0.0241089	-0.0405884
-0.0375366	-0.0415039
-0.0466919	-0.0415039
-0.0387573	-0.0405884
-0.00427246	-0.0387573
0.0146484	-0.0360107
0.0350952	-0.032959
0.0500488	-0.0302124
0.0454712	-0.0274658
0.0286865	-0.0250244
-0.00274658	-0.0219727
-0.0360107	-0.0189209
-0.0488281	-0.0167847
-0.0442505	-0.015564
-0.0372314	-0.015564
-0.0256348	-0.0158691
-0.0106812	-0.0167847
0.00579834	-0.0170898
0.0292969	-0.0161743
0.0476074	-0.0128174
0.057373	-0.00823975
0.0613403	-0.00213623
0.0534058	0.00640869
0.0283813	0.0180054
-0.00518799	0.0332642
-0.0463867	0.0521851
-0.0775146	0.0735474
-0.0891113	0.09552
-0.0775146	0.117493
-0.0585938	0.140076
-0.0418091	0.162964
-0.0222778	0.185547
0.00213623	0.206604
0.0366211	0.224915
0.0683594	0.238647
0.0872803	0.245361
0.0909424	0.243225
0.0845337	0.231934
0.067749	0.211182
0.0427246	0.180359
0.017395	0.13916
-0.0125122	0.0897217
-0.0491333	0.0357056
-0.0726318	-0.0192261
-0.0830078	-0.0714111
-0.0900269	-0.116882
-0.0961304	-0.152283
-0.0823975	-0.176086
-0.0674438	-0.187683
-0.107727	-0.187378
-0.141907	-0.177002
-0.0888062	-0.158997
0.0256348	-0.136414
0.183411	-0.11261
0.357361	-0.090332
0.468445	-0.0714111
0.466919	-0.057373
0.365601	-0.0476074
0.174866	-0.0421143
-0.0805664	-0.0390625
-0.342712	-0.0372314
-0.540466	-0.0363159
-0.631409	-0.0357056
-0.61554	-0.03479
-0.496521	-0.0335693
-0.314331	-0.0311279
-0.093689	-0.0292969
0.166016	-0.0274658
0.418396	-0.0256348
0.623474	-0.0238037
0.726013	-0.0222778
0.668335	-0.0213623
0.457153	-0.0216675
0.15686	-0.0222778
-0.111084	-0.0228882
-0.323181	-0.0234985
-0.444946	-0.0234985
-0.466309	-0.0231934
-0.441284	-0.0228882
-0.368958	-0.0231934
-0.257874	-0.0231934
-0.141907	-0.0219727
0.0222778	-0.0210571
0.170898	-0.0201416
0.271301	-0.0192261
0.348206	-0.0180054
0.357056	-0.0161743
0.309143	-0.0146484
0.228271	-0.0131226
0.105896	-0.0128174
-0.0299072	-0.0131226
-0.151062	-0.0137329
-0.245667	-0.0137329
-0.281677	-0.0143433
-0.26001	-0.015564
-0.200806	-0.0170898
-0.115967	-0.0183105
-0.0152588	-0.0192261
0.0656128	-0.0192261
0.141907	-0.0186157
0.174561	-0.0180054
0.155029	-0.0170898
0.127869	-0.015564
0.0912476	-0.0137329
0.0543213	-0.012207
0.0137329	-0.0119019
-0.0476074	-0.0119019
-0.0946045	-0.0119019
-0.0994873	-0.0119019
-0.0878906	-0.0125122
-0.0723267	-0.0131226
-0.067749	-0.0143433
-0.0445557	-0.0152588
-0.00762939	-0.0152588
0.0228882	-0.0152588
0.0311279	-0.0158691
0.0305176	-0.0161743
0.0427246	-0.0158691
0.0537109	-0.0158691
0.0628662	-0.0161743
0.0588989	-0.0167847
0.0250244	-0.0170898
-0.00762939	-0.0180054
-0.0317383	-0.0195313
-0.0488281	-0.0216675
-0.0604248	-0.022583
-0.0631714	-0.0231934
-0.0332642	-0.0231934
0.00183105	-0.0231934
0.0375366	-0.0228882
0.0384521	-0.022583
0.0204468	-0.0219727
0.0183105	-0.0213623
0.0170898	-0.0204468
0.0219727	-0.0186157
0.0115967	-0.0170898
0.00335693	-0.0167847
-0.0012207	-0.017395
-0.0112915	-0.0186157
-0.0158691	-0.0195313
-0.0238037	-0.0195313
-0.0375366	-0.0192261
-0.0280762	-0.0192261
-0.00732422	-0.0192261
0.00213623	-0.0192261
0.0238037	-0.0189209
0.015564	-0.0186157
0.0189209	-0.0189209
0.0299072	-0.0201416
0.0106812	-0.0204468
0.000915527	-0.0201416
-0.0234985	-0.0195313
-0.0402832	-0.0195313
-0.032959	-0.0195313
-0.0213623	-0.0189209
-0.0146484	-0.0180054
-0.0137329	-0.0170898
0.00915527	-0.0164795
0.022583	-0.0152588
0.0286865	-0.0134277
0.0314331	-0.012207
0.0204468	-0.0115967
0.0250244	-0.0112915
0.0228882	-0.0112915
0.0259399	-0.0115967
0.0177002	-0.012207
-0.00518799	-0.0131226
-0.0128174	-0.0140381
-0.0231934	-0.0149536
-0.0180054	-0.0158691
-0.0247192	-0.0170898
-0.0299072	-0.0189209
-0.027771	-0.0210571
-0.0280762	-0.0234985
0.00244141	-0.0259399
0.00396729	-0.0274658
0	-0.0292969
0.0125122	-0.0317383
0.010376	-0.0344849
0.0253296	-0.0375366
0.0241089	-0.0402832
0.015564	-0.0427246
0.017395	-0.0448608
-0.00488281	-0.0473022
-0.0106812	-0.0494385
-0.032959	-0.0506592
-0.0466919	-0.0506592
-0.0149536	-0.0506592
-0.000610352	-0.050354
0.0210571	-0.050354
0.0259399	-0.0506592
0.00274658	-0.0512695
0.00549316	-0.0515747
-0.00396729	-0.0518799
-0.00610352	-0.0524902
0.00610352	-0.0537109
-0.000915527	-0.0552368
0.00976563	-0.0552368
0.0219727	-0.0543213
0.017395	-0.0531006
0.0143433	-0.0515747
-0.00732422	-0.0497437
-0.0311279	-0.0479126
-0.0265503	-0.0460815
-0.0265503	-0.0439453
-0.0262451	-0.0411987
-0.0228882	-0.0384521
-0.0314331	-0.0366211
-0.0259399	-0.0357056
-0.0241089	-0.0354004
-0.0271606	-0.0350952
-0.0128174	-0.0335693
0.00518799	-0.0320435
0.0350952	-0.0299072
0.0457764	-0.0280762
0.0274658	-0.0271606
0.0219727	-0.0265503
-0.00244141	-0.0265503
0	-0.0265503
0.186768	-0.0259399
0.302124	-0.0253296
0.297852	-0.0253296
0.205078	-0.0262451
-0.0497437	-0.0268555
-0.26825	-0.0268555
-0.413208	-0.027771
-0.487976	-0.0289917
-0.441284	-0.0289917
-0.317383	-0.0280762
-0.127563	-0.0265503
0.0939941	-0.0256348
0.279541	-0.0250244
0.412292	-0.0241089
0.446777	-0.0228882
0.413513	-0.0213623
0.32959	-0.0192261
0.16571	-0.0177002
0.000305176	-0.0164795
-0.154724	-0.0161743
-0.281067	-0.0158691
-0.330811	-0.0158691
-0.351563	-0.0158691
-0.315247	-0.0164795
-0.201416	-0.0170898
-0.0811768	-0.0177002
0.0366211	-0.0186157
0.130615	-0.0198364
0.206909	-0.0210571
0.241699	-0.0216675
0.243225	-0.0216675
0.199585	-0.0210571
0.107422	-0.0204468
0.0363159	-0.0204468
-0.0430298	-0.020752
-0.098877	-0.020752
-0.133972	-0.0204468
-0.166626	-0.0186157
-0.154419	-0.0167847
-0.114746	-0.0158691
-0.0570679	-0.0152588
0.00610352	-0.0149536
0.0479126	-0.0140381
0.0738525	-0.0137329
0.0976563	-0.0134277
0.102234	-0.0137329
0.0848389	-0.0143433
0.043335	-0.0152588
0.00305176	-0.0164795
-0.0152588	-0.0177002
-0.020752	-0.0192261
-0.0424194	-0.020752
-0.0628662	-0.0213623
-0.0396729	-0.0216675
-0.0286865	-0.020752
-0.0177002	-0.0195313
0.00854492	-0.0189209
0.0213623	-0.0186157
0.015564	-0.0186157
0.00152588	-0.0183105
-0.00854492	-0.017395
-0.0112915	-0.0161743
-0.0131226	-0.0158691
-0.015564	-0.015564
0.00396729	-0.0149536
0.0186157	-0.0143433
0.00823975	-0.0134277
0.0140381	-0.012207
0.0195313	-0.0112915
0.0088501	-0.010376
-0.00457764	-0.00946045
-0.000915527	-0.0088501
0.000915527	-0.00762939
-0.00549316	-0.00671387
-0.00305176	-0.00518799
0.012207	-0.00366211
0.000610352	-0.00274658
-0.0253296	-0.00244141
-0.0292969	-0.00183105
-0.0280762	-0.00152588
-0.0192261	-0.000915527
-0.00366211	0.000915527
0.0088501	0.00274658
0.0183105	0.00427246
0.0317383	0.00518799
0.0418091	0.00640869
0.0296021	0.00946045
0.00946045	0.0134277
-0.00274658	0.017395
0.0131226	0.0204468
0.0219727	0.022583
0.0177002	0.0244141
0.0146484	0.0268555
-0.00549316	0.0292969
-0.0363159	0.0311279
-0.0598145	0.0323486
-0.0643921	0.032959
-0.0588989	0.0332642
-0.043335	0.0335693
-0.0177002	0.0344849
0.00579834	0.0360107
0.0292969	0.038147
0.0488281	0.039978
0.0622559	0.0411987
0.0683594	0.0415039
0.0524902	0.0421143
0.0305176	0.0424194
0.00427246	0.0424194
-0.0131226	0.0430298
-0.0253296	0.0430298
-0.0430298	0.0430298
-0.0558472	0.0424194
-0.0531006	0.0418091
-0.03479	0.0418091
-0.0128174	0.0418091
0.00213623	0.0418091
-0.00579834	0.0411987
-0.0128174	0.0411987
-0.0134277	0.0418091
-0.00701904	0.0427246
0.0112915	0.0430298
0.022583	0.0427246
0.0344849	0.0421143
0.0332642	0.0418091
0.0430298	0.0415039
0.0442505	0.0408936
0.0253296	0.0405884
0.012207	0.0405884
-0.015564	0.0405884
-0.0164795	0.0411987
-0.0177002	0.0408936
-0.0299072	0.0402832
-0.0238037	0.0408936
-0.03479	0.0415039
-0.0125122	0.0418091
0.00671387	0.0418091
0.0012207	0.0418091
0.0137329	0.0424194
0.0134277	0.0436401
0.0323486	0.0442505
0.0421143	0.0442505
0.0247192	0.0442505
0.0247192	0.0436401
-0.00915527	0.0424194
-0.0314331	0.0411987
-0.039978	0.039978
-0.06073	0.0387573
-0.0454712	0.0375366
-0.043335	0.0360107
-0.0231934	0.0341797
0.00610352	0.0335693
0.010376	0.0335693
0.03479	0.0341797
0.0305176	0.0350952
0.0320435	0.0357056
0.0454712	0.0360107
0.0338745	0.0360107
0.0415039	0.0360107
0.0219727	0.0354004
-0.00457764	0.03479
-0.0131226	0.0338745
-0.0457764	0.0326538
-0.055542	0.0320435
-0.0567627	0.0323486
-0.0537109	0.0341797
-0.0271606	0.0369263
-0.0134277	0.0402832
0.00335693	0.0439453
0.0262451	0.0476074
0.0448608	0.0512695
0.0512695	0.0549316
0.0546265	0.0579834
0.0473022	0.06073
0.0247192	0.0631714
0.0228882	0.0653076
0.000610352	0.0668335
-0.0326538	0.0686646
-0.0534058	0.0708008
-0.0689697	0.072937
-0.0540161	0.0750732
-0.0476074	0.0775146
-0.0338745	0.0805664
-0.0109863	0.0839233
-0.000610352	0.0869751
0.0387573	0.0891113
0.0561523	0.0897217
0.0497437	0.0891113
0.0497437	0.0875854
0.0274658	0.0839233
0.0219727	0.078125
0.00701904	0.071106
-0.0234985	0.0634766
-0.0238037	0.0558472
-0.0341797	0.0482178
-0.0213623	0.0405884
-0.0164795	0.0332642
-0.0241089	0.0271606
-0.0115967	0.0222778
-0.0189209	0.0186157
0.00488281	0.0161743
0.0250244	0.0149536
0.0195313	0.0134277
0.0350952	0.0112915
0.0213623	0.00854492
0.0286865	0.00488281
0.0323486	0.0012207
0.00793457	-0.00244141
0.000610352	-0.00579834
-0.0326538	-0.00946045
-0.0326538	-0.012207
-0.03479	-0.0137329
-0.0384521	-0.0146484
-0.0125122	-0.0152588
-0.0158691	-0.0149536
0.0149536	-0.0140381
0.0186157	-0.0119019
0.00732422	-0.0088501
0.0149536	-0.00488281
-0.00488281	-0.00183105
0.010376	0.000305176
0.00976563	0.00152588
0.0140381	0.00213623
0.0271606	0.0012207
0.010376	0
0.0167847	-0.000305176
0.00152588	-0.000915527
-0.0128174	-0.0012207
-0.0262451	-0.000915527
-0.0457764	0.00152588
-0.0320435	0.00640869
-0.0241089	0.0134277
-0.00335693	0.0231934
0.00213623	0.0350952
0.00732422	0.0500488
0.0296021	0.0686646
0.0119019	0.0894165
0.00305176	0.110168
-0.0219727	0.131226
-0.0411987	0.152588
-0.03479	0.174866
-0.0479126	0.196838
-0.0323486	0.218201
-0.0198364	0.237427
0.012207	0.25238
0.0549316	0.260315
0.078125	0.258789
0.108032	0.246887
0.100403	0.22522
0.0942993	0.194092
0.0720215	0.152588
0.0244141	0.102234
-0.0170898	0.0473022
-0.0765991	-0.00823975
-0.106506	-0.06073
-0.114746	-0.105896
-0.112915	-0.141296
-0.103455	-0.163879
-0.0985718	-0.174255
-0.0942993	-0.173035
-0.137939	-0.162354
-0.128479	-0.144958
-0.017395	-0.123596
0.103455	-0.101624
0.254822	-0.0814819
0.404053	-0.0643921
0.457764	-0.0506592
0.421753	-0.0408936
0.295105	-0.0354004
0.101624	-0.0338745
-0.152893	-0.0338745
-0.396118	-0.0332642
-0.55603	-0.0323486
-0.621338	-0.0314331
-0.556946	-0.0305176
-0.396118	-0.0296021
-0.172424	-0.0283813
0.0292969	-0.0271606
0.18158	-0.0253296
0.352173	-0.0244141
0.509033	-0.0241089
0.588989	-0.0238037
0.586853	-0.022583
0.438232	-0.0210571
0.188599	-0.0192261
-0.0656128	-0.0177002
-0.277405	-0.0161743
-0.397644	-0.0152588
-0.450745	-0.0137329
-0.412598	-0.0119019
-0.354004	-0.0100708
-0.270081	-0.00823975
-0.166321	-0.00762939
-0.06073	-0.00732422
0.0863647	-0.00762939
0.226135	-0.00823975
0.320435	-0.0088501
0.349426	-0.00946045
0.322876	-0.00915527
0.256348	-0.00793457
0.172729	-0.00640869
0.0668335	-0.00488281
-0.0454712	-0.00396729
-0.151978	-0.00396729
-0.213013	-0.00366211
-0.236511	-0.00335693
-0.224915	-0.00305176
-0.166931	-0.00335693
-0.11322	-0.00427246
-0.0299072	-0.00518799
0.0518799	-0.00549316
0.113831	-0.00488281
0.141296	-0.00366211
0.119934	-0.00244141
0.102539	-0.00152588
0.0692749	-0.000610352
0.0378418	0.0012207
-0.00640869	0.00244141
-0.0631714	0.00305176
-0.0756836	0.00305176
-0.0897217	0.00274658
-0.0784302	0.00183105
-0.0549316	0.000915527
-0.0448608	0
-0.0119019	0
0.00946045	0.000610352
0.0494385	0.00152588
0.0595093	0.00213623
0.0479126	0.00244141
0.0549316	0.00274658
0.0378418	0.00335693
0.057373	0.00457764
0.0384521	0.00579834
0.000915527	0.00671387
-0.0149536	0.00671387
-0.0576782	0.00610352
-0.0469971	0.00549316
-0.0546265	0.00488281
-0.0408936	0.00457764
0.00183105	0.00457764
0.0012207	0.00427246
0.0222778	0.00335693
0.00701904	0.00305176
-0.00457764	0.00366211
0.00915527	0.00488281
-0.00640869	0.00610352
-0.00183105	0.00762939
-0.0128174	0.0088501
-0.0228882	0.010376
-0.00732422	0.0112915
-0.00152588	0.0115967
0.0158691	0.0115967
0.0201416	0.0112915
0.000305176	0.0100708
0.00579834	0.00854492
0.0167847	0.00793457
0.0228882	0.00732422
0.0219727	0.00671387
-0.00488281	0.00579834
-0.010376	0.00549316
-0.017395	0.00488281
-0.017395	0.00488281
-0.0164795	0.00488281
-0.0234985	0.00488281
0.0140381	0.00457764
0.0274658	0.00427246
0.0524902	0.00427246
0.0564575	0.00457764
0.020752	0.00518799
-0.00183105	0.00610352
-0.0415039	0.00610352
-0.0665283	0.00549316
-0.0845337	0.00488281
-0.0857544	0.00488281
-0.0500488	0.00488281
-0.0222778	0.00457764
0.0366211	0.00366211
0.0646973	0.00183105
0.0811768	0
0.0744629	-0.00244141
0.0558472	-0.00488281
0.050354	-0.00701904
0.0125122	-0.00793457
-0.0250244	-0.00823975
-0.027771	-0.0088501
-0.0500488	-0.010376
-0.0323486	-0.012207
-0.0357056	-0.0143433
-0.0424194	-0.0158691
-0.0219727	-0.0167847
-0.0106812	-0.0167847
0.00335693	-0.0170898
0.0152588	-0.0186157
0.0119019	-0.0201416
0.0167847	-0.0210571
0.0228882	-0.0210571
0.0244141	-0.020752
0.00427246	-0.0210571
0.00762939	-0.0216675
-0.00183105	-0.0219727
-0.0119019	-0.0219727
-0.0012207	-0.022583
-0.00152588	-0.0238037
0.00518799	-0.0253296
0.00518799	-0.0268555
-0.00244141	-0.0274658
0.00701904	-0.0271606
-0.00274658	-0.0268555
-0.027771	-0.0265503
-0.0219727	-0.0259399
-0.00549316	-0.0250244
0.017395	-0.0238037
0.0228882	-0.0222778
0.0143433	-0.0216675
0.0088501	-0.0219727
-0.00274658	-0.0216675
-0.0204468	-0.020752
-0.0421143	-0.0198364
-0.0521851	-0.0192261
-0.0698853	-0.0189209
-0.0552368	-0.0183105
-0.0146484	-0.0170898
-0.022583	-0.015564
-0.00366211	-0.0146484
0.0112915	-0.0143433
0.00610352	-0.0137329
0.0268555	-0.0131226
0.0158691	-0.0119019
0.0476074	-0.0109863
0.25177	-0.0109863
0.349426	-0.0112915
0.340271	-0.0119019
0.20752	-0.0119019
-0.0582886	-0.0115967
-0.285339	-0.0112915
-0.411072	-0.0112915
-0.456848	-0.012207
-0.418091	-0.0134277
-0.336914	-0.0146484
-0.162354	-0.0158691
0.0540161	-0.0164795
0.246277	-0.0167847
0.35675	-0.0170898
0.393066	-0.0170898
0.39856	-0.0161743
0.346069	-0.0146484
0.230713	-0.0134277
0.0616455	-0.0125122
-0.115051	-0.0115967
-0.24231	-0.010376
-0.308533	-0.00946045
-0.340881	-0.00976563
-0.302124	-0.0106812
-0.237122	-0.0115967
-0.122986	-0.0125122
0.00701904	-0.0131226
0.117493	-0.0134277
0.190735	-0.0140381
0.22583	-0.0149536
0.215759	-0.0158691
0.178223	-0.0161743
0.117493	-0.015564
0.0366211	-0.0140381
-0.0357056	-0.0128174
-0.107727	-0.012207
-0.149841	-0.0128174
-0.143127	-0.0137329
-0.123291	-0.0134277
-0.0857544	-0.0125122
-0.0317383	-0.0115967
0.0210571	-0.0115967
0.0720215	-0.0119019
0.10498	-0.0119019
0.11322	-0.0115967
0.0970459	-0.0106812
0.0686646	-0.010376
0.0256348	-0.0106812
-0.0204468	-0.0112915
-0.0619507	-0.0119019
-0.0808716	-0.0125122
-0.0820923	-0.0134277
-0.0888062	-0.0143433
-0.0683594	-0.0146484
-0.0350952	-0.0152588
-0.00579834	-0.015564
0.0305176	-0.015564
0.0506592	-0.0149536
0.0610352	-0.0134277
0.0427246	-0.0112915
0.0393677	-0.00976563
0.0524902	-0.00915527
0.0350952	-0.0088501
0.012207	-0.00915527
-0.0192261	-0.00976563
-0.0411987	-0.0106812
-0.0469971	-0.0119019
-0.0424194	-0.0134277
-0.0238037	-0.0152588
-0.00946045	-0.0170898
0.00762939	-0.0180054
0.0244141	-0.0183105
0.0384521	-0.0180054
0.0274658	-0.0177002
0.00518799	-0.0170898
-0.0109863	-0.0161743
-0.0161743	-0.015564
-0.0134277	-0.0149536
-0.0137329	-0.0143433
-0.00427246	-0.0140381
-0.00427246	-0.0143433
0.00946045	-0.0143433
0.0164795	-0.0137329
-0.00610352	-0.0131226
-0.0283813	-0.0131226
-0.0253296	-0.0131226
-0.0143433	-0.0131226
-0.00701904	-0.0131226
0.000915527	-0.0134277
0.00732422	-0.0143433
0.0250244	-0.015564
0.0402832	-0.017395
0.0476074	-0.0192261
0.039978	-0.0216675
0.00946045	-0.0234985
-0.00915527	-0.0247192
-0.0219727	-0.0256348
-0.0366211	-0.0262451
-0.0405884	-0.0268555
-0.0332642	-0.0271606
-0.0265503	-0.0274658
-0.00183105	-0.0274658
0.0228882	-0.0271606
0.0326538	-0.0265503
0.0296021	-0.0259399
0.0198364	-0.0253296
0.0088501	-0.0256348
-0.000305176	-0.0256348
-0.0140381	-0.0253296
-0.0463867	-0.0247192
-0.0436401	-0.0241089
-0.0274658	-0.0241089
-0.0137329	-0.0247192
-0.0183105	-0.0253296
0.00793457	-0.0262451
0.020752	-0.0262451
0.0390625	-0.0262451
0.0494385	-0.0274658
0.0622559	-0.0289917
0.0421143	-0.0299072
0.0189209	-0.0308228
-0.00732422	-0.0317383
-0.0216675	-0.0323486
-0.0445557	-0.0323486
-0.0601196	-0.0323486
-0.0552368	-0.0323486
-0.0280762	-0.0317383
-0.0109863	-0.0317383
0.00427246	-0.0311279
0.00366211	-0.0299072
0.0134277	-0.0286865
0.0192261	-0.0274658
0.0195313	-0.0265503
0.0134277	-0.0256348
-0.0012207	-0.0250244
0.000305176	-0.0250244
0.0143433	-0.0250244
0.0152588	-0.0253296
0.0115967	-0.0259399
0.0109863	-0.0259399
0.0152588	-0.0253296
0.0143433	-0.0244141
0.00640869	-0.0244141
-0.00610352	-0.0244141
-0.0186157	-0.0250244
-0.0177002	-0.0259399
-0.0286865	-0.0265503
-0.0299072	-0.0262451
-0.0296021	-0.0253296
-0.0149536	-0.0247192
-0.0119019	-0.0244141
0.0100708	-0.0244141
0.0186157	-0.0241089
0.0363159	-0.0231934
0.0244141	-0.0216675
0.027771	-0.0204468
0.0180054	-0.0195313
0.0128174	-0.0189209
-0.0149536	-0.0180054
-0.0335693	-0.0164795
-0.0320435	-0.0152588
-0.0195313	-0.0146484
-0.010376	-0.0134277
-0.00549316	-0.0109863
0.00762939	-0.00823975
0.0213623	-0.00610352
0.0204468	-0.00366211
0.0109863	-0.00152588
0.00762939	0.0012207
0.000915527	0.00518799
0.000305176	0.00915527
0.00671387	0.0128174
0.00518799	0.0170898
-0.0152588	0.0213623
-0.022583	0.0259399
-0.0335693	0.0308228
-0.0308228	0.0354004
-0.0134277	0.0393677
-0.00701904	0.0430298
0.0115967	0.0473022
0.0259399	0.0512695
0.0485229	0.0543213
0.0665283	0.0567627
0.038147	0.0588989
0.00671387	0.0610352
-0.0259399	0.062561
-0.0341797	0.0634766
-0.0466919	0.0631714
-0.0695801	0.0610352
-0.0491333	0.0567627
-0.0360107	0.0509644
-0.0158691	0.0442505
0.0265503	0.0372314
0.0332642	0.0302124
0.03479	0.0231934
0.0415039	0.0170898
0.0375366	0.0109863
0.0469971	0.00549316
0.0354004	0.000915527
0.0177002	-0.00152588
-0.00854492	-0.00183105
-0.0317383	-0.00152588
-0.0262451	-0.00183105
-0.0335693	-0.00274658
-0.0283813	-0.00457764
-0.0198364	-0.00671387
-0.0198364	-0.00854492
0.00701904	-0.0100708
-0.000915527	-0.010376
-0.00549316	-0.0109863
0.00671387	-0.0112915
0.010376	-0.0115967
0.0180054	-0.0112915
0.000305176	-0.010376
-0.00946045	-0.00823975
-0.00518799	-0.00488281
-0.0088501	-0.00183105
0.00976563	0.000305176
0.0115967	0.00152588
0.010376	0.00274658
0.0112915	0.00427246
0.0112915	0.00579834
0.0213623	0.00610352
0.0180054	0.00518799
-0.000915527	0.00427246
-0.0164795	0.00457764
-0.0161743	0.00610352
-0.0131226	0.00854492
-0.0195313	0.0128174
-0.0323486	0.0180054
-0.0143433	0.0259399
-0.0131226	0.0360107
-0.000610352	0.0488281
-0.00274658	0.0650024
-0.00396729	0.083313
0.00854492	0.102844
0.0186157	0.123596
0.0204468	0.145569
0.0115967	0.168457
-0.0167847	0.19104
-0.00823975	0.211792
-0.00183105	0.230408
0.0210571	0.245972
0.0317383	0.256958
0.0305176	0.26123
0.0299072	0.256653
0.0296021	0.241394
0.0164795	0.214844
-0.0012207	0.177612
-0.0335693	0.132446
-0.0549316	0.0817871
-0.0601196	0.027771
-0.0350952	-0.0262451
-0.0247192	-0.0762939
-0.020752	-0.119629
-0.0170898	-0.152588
-0.00640869	-0.173645
-0.0143433	-0.18219
-0.0741577	-0.179138
-0.157166	-0.166931
-0.10498	-0.148315
0.0390625	-0.126343
0.170898	-0.104065
0.26062	-0.0839233
0.292053	-0.0671387
0.265503	-0.0534058
0.231934	-0.0427246
0.178223	-0.0350952
0.0540161	-0.0308228
-0.128479	-0.0283813
-0.2948	-0.0262451
-0.404663	-0.0241089
-0.435486	-0.0216675
-0.429993	-0.0186157
-0.405579	-0.0164795
-0.245972	-0.0146484
-0.00671387	-0.0131226
0.21698	-0.0119019
0.402527	-0.0112915
0.520935	-0.0112915
0.526428	-0.012207
0.428162	-0.0134277
0.26062	-0.0140381
0.0653076	-0.0143433
-0.128479	-0.0143433
-0.290527	-0.0140381
-0.39856	-0.0128174
-0.443115	-0.0109863
-0.415955	-0.00854492
-0.302124	-0.00640869
-0.123901	-0.00488281
0.0701904	-0.00396729
0.231934	-0.00335693
0.343628	-0.00274658
0.381165	-0.00244141
0.348816	-0.00244141
0.277405	-0.00305176
0.168152	-0.00457764
0.0320435	-0.00610352
-0.10437	-0.00701904
-0.213623	-0.00671387
-0.275574	-0.00640869
-0.287476	-0.00610352
-0.251465	-0.00549316
-0.1828	-0.00488281
-0.0881958	-0.00457764
0.00976563	-0.00396729
0.083313	-0.00274658
0.131836	-0.0012207
0.148621	0
0.140381	0.000610352
0.121765	0.00152588
0.0836182	0.00274658
0.0393677	0.00396729
-0.00366211	0.00518799
-0.0378418	0.00610352
-0.0521851	0.00640869
-0.0582886	0.00640869
-0.0640869	0.00640869
-0.0601196	0.00610352
-0.0405884	0.00549316
-0.0244141	0.00488281
-0.000610352	0.00457764
0.0152588	0.00488281
0.0216675	0.00610352
0.0317383	0.00732422
0.0494385	0.00854492
0.0488281	0.00976563
0.0302124	0.0109863
0.00762939	0.0125122
-0.0183105	0.0140381
-0.0219727	0.0146484
-0.0131226	0.0146484
-0.0170898	0.0146484
-0.0222778	0.0149536
-0.0161743	0.0152588
0	0.0149536
0.00335693	0.0149536
0.0158691	0.015564
0.0244141	0.0164795
0.0167847	0.0170898
0.00335693	0.0177002
-0.0115967	0.0180054
-0.0326538	0.0183105
-0.0369263	0.0192261
-0.0262451	0.0201416
-0.00244141	0.0204468
0.0137329	0.0210571
0.00976563	0.0216675
-0.00457764	0.0222778
-0.0158691	0.0231934
-0.010376	0.0241089
0.0152588	0.0250244
0.0228882	0.0259399
0.0280762	0.0271606
0.0473022	0.0289917
0.0332642	0.0292969
0.0137329	0.0292969
0.00488281	0.0292969
-0.0314331	0.0299072
-0.0341797	0.0305176
-0.0265503	0.0311279
-0.0299072	0.0317383
-0.022583	0.0326538
-0.0262451	0.032959
0.000305176	0.032959
0.00274658	0.032959
0.0164795	0.0332642
0.0149536	0.0338745
0.0183105	0.0354004
0.020752	0.0363159
0.0234985	0.0357056
0.0146484	0.0341797
0.0268555	0.0317383
-0.00457764	0.0302124
-0.0112915	0.0296021
-0.0228882	0.0292969
-0.0375366	0.0286865
-0.0405884	0.027771
-0.0405884	0.0262451
-0.0311279	0.0250244
-0.0088501	0.0238037
0.0360107	0.0222778
0.0558472	0.0201416
0.0363159	0.0177002
0.0308228	0.0146484
0.0421143	0.0112915
0.00823975	0.00793457
-0.0140381	0.00488281
-0.0384521	0.00183105
-0.055542	-0.00213623
-0.0473022	-0.00579834
-0.0366211	-0.00823975
-0.0247192	-0.00976563
0.0192261	-0.0106812
0.00915527	-0.0119019
0.00732422	-0.0137329
0.0695801	-0.0161743
0.0390625	-0.0183105
0	-0.0189209
0.0366211	-0.0189209
0.0125122	-0.0198364
-0.00701904	-0.0210571
-0.00335693	-0.0219727
-0.0131226	-0.022583
-0.00244141	-0.0228882
-0.0128174	-0.022583
-0.0170898	-0.022583
-0.00732422	-0.0231934
-0.0143433	-0.0241089
0.00732422	-0.0247192
0.0213623	-0.0247192
-0.0012207	-0.0244141
-0.0216675	-0.0238037
-0.0189209	-0.0234985
-0.0622559	-0.022583
-0.0595093	-0.0213623
-0.00579834	-0.0201416
-0.015564	-0.0183105
-0.00793457	-0.0167847
-0.0213623	-0.0158691
-0.0384521	-0.015564
0.00549316	-0.015564
0.027771	-0.0158691
0.0219727	-0.0161743
0.132446	-0.0164795
0.307922	-0.0170898
0.343933	-0.0180054
0.291443	-0.0186157
0.0720215	-0.0186157
-0.177002	-0.0180054
-0.338135	-0.0170898
-0.410461	-0.015564
-0.417786	-0.0140381
-0.363464	-0.0125122
-0.263672	-0.0112915
-0.102844	-0.0112915
0.0820923	-0.012207
0.217285	-0.0128174
0.317993	-0.0131226
0.375366	-0.0137329
0.365295	-0.0140381
0.308838	-0.0137329
0.201721	-0.0128174
0.0473022	-0.0115967
-0.0714111	-0.0106812
-0.137939	-0.00946045
-0.169067	-0.00854492
-0.188293	-0.00701904
-0.186768	-0.00671387
-0.166016	-0.00701904
-0.154114	-0.00793457
-0.129395	-0.00915527
-0.0857544	-0.0100708
-0.0408936	-0.0115967
0.0238037	-0.0128174
0.0875854	-0.0137329
0.132446	-0.0134277
0.137329	-0.0128174
0.126343	-0.0119019
0.118408	-0.0109863
0.113525	-0.00946045
0.083313	-0.00762939
0.0140381	-0.00549316
-0.0546265	-0.00396729
-0.107117	-0.00305176
-0.143127	-0.00274658
-0.152283	-0.00274658
-0.146179	-0.00305176
-0.118408	-0.00335693
-0.0683594	-0.00396729
0.00152588	-0.00488281
0.0787354	-0.00579834
0.126648	-0.00640869
0.141602	-0.00640869
0.144653	-0.00640869
0.136414	-0.00610352
0.110474	-0.00518799
0.0567627	-0.00488281
-0.0115967	-0.00488281
-0.0619507	-0.00488281
-0.0857544	-0.00488281
-0.0912476	-0.00549316
-0.0942993	-0.00610352
-0.0836182	-0.00701904
-0.0531006	-0.00793457
-0.00946045	-0.00915527
0.0296021	-0.00946045
0.039978	-0.00854492
0.0302124	-0.00762939
0.0238037	-0.00701904
0.0177002	-0.00640869
0.0119019	-0.00549316
0.0012207	-0.00518799
-0.0128174	-0.00457764
-0.0222778	-0.00457764
-0.0222778	-0.00457764
-0.015564	-0.00518799
-0.0140381	-0.00640869
-0.0164795	-0.00823975
-0.0012207	-0.010376
0.0305176	-0.0125122
0.0500488	-0.0137329
0.0579834	-0.0137329
0.0384521	-0.0131226
0.00640869	-0.012207
-0.0213623	-0.0112915
-0.0479126	-0.0109863
-0.06073	-0.0106812
-0.0595093	-0.010376
-0.0421143	-0.00915527
-0.00762939	-0.00793457
0.0247192	-0.00793457
0.043335	-0.0088501
0.0576782	-0.010376
0.0720215	-0.0112915
0.0750732	-0.0115967
0.0561523	-0.0125122
0.0137329	-0.0137329
-0.0378418	-0.0143433
-0.0720215	-0.0134277
-0.0881958	-0.0119019
-0.0921631	-0.0106812
-0.0830078	-0.00976563
-0.0668335	-0.00823975
-0.043335	-0.00610352
-0.00518799	-0.00457764
0.0360107	-0.00366211
0.0610352	-0.00274658
0.0717163	-0.00213623
0.0854492	-0.00213623
0.090332	-0.00366211
0.065918	-0.00610352
0.0317383	-0.00915527
0.000915527	-0.0119019
-0.0219727	-0.0140381
-0.0314331	-0.0152588
-0.0531006	-0.0158691
-0.0650024	-0.015564
-0.062561	-0.0143433
-0.0543213	-0.0128174
-0.0247192	-0.010376
-0.00335693	-0.00671387
0.00701904	-0.00274658
0.0234985	0.000610352
0.0427246	0.00396729
0.0537109	0.00701904
0.0558472	0.00946045
0.0375366	0.012207
0.00610352	0.015564
-0.0112915	0.0186157
-0.022583	0.0216675
-0.0180054	0.0247192
-0.017395	0.0271606
-0.022583	0.0302124
-0.0222778	0.0332642
-0.017395	0.0366211
